nasdaq_Close,SPX_Close,Prediction,Residual,Excess
0.0157761957124265,0.0031156756258232665,-1.6510576303073523e-05,0.01579270628872957,0.015802543590854676
-0.002332108269032629,0.0005455206301101523,5.224077589443128e-06,-0.002337332346622072,-0.002327495044496969
0.016611937672031063,0.00400120187417663,-2.3999076628073934e-05,0.01663593674865914,0.01664577405078424
0.0,0.0028817272914287706,-1.453217963622803e-05,1.453217963622803e-05,2.436948176133073e-05
0.03180037189564788,0.0017467554316374923,-4.934229087932425e-06,0.03180530612473582,0.03181514342686092
-0.007823656440661408,-0.009381166148364262,8.916963798927407e-05,-0.007912826078650683,-0.00790298877652558
0.030107579024396314,0.008325925658531075,-6.057133580717393e-05,0.030168150360203486,0.03017798766232859
-0.001206261943603737,0.0024264254383745687,-1.0681895038894294e-05,-0.0011955800485648426,-0.00118574274643974
-0.018533149718500175,-0.010823130159869354,0.0001013636841724041,-0.018634513402672578,-0.018624676100547476
0.0,0.012499626599363545,-9.58664621910578e-05,9.58664621910578e-05,0.00010570376431616049
-0.005205807258486406,-0.010597829662970737,9.945841840824937e-05,-0.005305265676894655,-0.005295428374769553
-0.014224537576854268,-0.01894490338978838,0.00017004589611690934,-0.014394583472971177,-0.014384746170846075
0.0,-0.022140988764300484,0.00019707376390769256,-0.00019707376390769256,-0.00018723646178258986
-0.03392698226730084,0.004598098012701168,-2.9046760912581817e-05,-0.03389793550638826,-0.03388809820426316
0.0,-0.004203199573680982,4.538188528351348e-05,-4.538188528351348e-05,-3.554458315841078e-05
-0.00439601086096808,0.004880152210944955,-3.143196740323514e-05,-0.004364578893564845,-0.004354741591439742
-0.02308083215140888,-0.011817740959567224,0.00010977466387022361,-0.023190606815279104,-0.023180769513154002
0.0374936556409764,-0.009829173828039273,9.295823901729267e-05,0.03740069740195911,0.03741053470408421
0.0014356102731682974,0.014266108894671836,-0.00011080481468723921,0.0015464150878555366,0.0015562523899806393
-0.04137623656139067,0.01297294837718499,-9.986913325093503e-05,-0.04127636742813973,-0.04126653012601463
-0.05094888921434271,-0.00547431142933863,5.613111102572523e-05,-0.05100502032536843,-0.05099518302324333
0.0072267622455226554,-0.031140677888039425,0.00027318011880495425,0.006953582126717701,0.0069634194288428035
-0.04143073470424674,0.002897118921960873,-1.4662339787275229e-05,-0.04141607236445947,-0.041406235062334366
-0.012831264847323554,-0.00886329049344714,8.47901946725254e-05,-0.01291605504199608,-0.012906217739870976
-0.01459440815541857,0.013040132316577413,-0.00010043727784620874,-0.014493970877572362,-0.014484133575447259
-0.02273645661076995,-0.0022325735201887964,2.8717180121502487e-05,-0.022765173790891453,-0.02275533648876635
0.023561491385823308,0.009680437561949251,-7.202583853685062e-05,0.02363351722436016,0.02364335452648526
-0.013302570121809909,-0.002744592819371894,3.304709885114931e-05,-0.013335617220661058,-0.013325779918535955
0.029894504387293352,0.01800074864554846,-0.00014238699651437695,0.030036891383807728,0.030046728685932833
-0.05606150412408517,0.0042379594555796984,-2.6001229843272253e-05,-0.0560355028942419,-0.056025665592116795
-0.04630682772195982,0.006584742448973557,-4.5846926389720206e-05,-0.0462609807955701,-0.046251143493444995
-0.07447685535533899,0.002186622042297248,-8.653984728160479e-06,-0.07446820137061083,-0.07445836406848573
6.833829920638301e-05,-0.0010458578339902491,1.868165512345102e-05,4.9656644082931995e-05,5.949394620803469e-05
-0.029235002738882243,-0.012102809596931441,0.00011218536212735479,-0.029347188101009596,-0.029337350798884495
0.01709822912636283,0.00972045942422195,-7.236428556673091e-05,0.01717059341192956,0.017180430714054663
0.06821169603869226,-0.002081040179913507,2.743573028304769e-05,0.06818426030840921,0.06819409761053431
-0.015024956361726072,0.0014053791778985136,-2.0473624458363994e-06,-0.015022908999280235,-0.015013071697155133
0.025313974498789582,0.01015850827289455,-7.606866920499188e-05,0.025390043167994574,0.025399880470119676
-0.04334998379964561,0.0023304422719907514,-9.870208232324372e-06,-0.043340113591413286,-0.043330276289288185
0.024400010816576945,0.00042920160206150193,6.2077357034355455e-06,0.024393803080873508,0.024403640382998613
0.004515131919958337,0.0037361180334851696,-2.1757380878386537e-05,0.004536889300836724,0.004546726602961826
0.01029248870419952,0.014007480947064943,-0.0001086177135444896,0.01040110641774401,0.010410943719869113
-0.029337799268433495,-0.00017559601339156572,1.1322239252372126e-05,-0.029349121507685868,-0.029339284205560767
0.005579888025939006,0.0017127370855292146,-4.64655111524498e-06,0.005584534577054251,0.005594371879179353
0.015325694152769298,0.00452455995494172,-2.8424882373740613e-05,0.015354119035143039,0.015363956337268142
0.04261546765440105,0.004041519314613495,-2.4340023230589748e-05,0.04263980767763164,0.04264964497975674
-0.031138821062128397,-0.00021734594703937127,1.167529981073694e-05,-0.031150496361939135,-0.03114065905981403
-0.029370109969839908,0.000452194832708086,6.0132922123589885e-06,-0.029376123262052266,-0.029366285959927164
0.05852687374541499,0.0077791163013856135,-5.5947213082058445e-05,0.058582820958497046,0.05859265826062215
-0.03366347252722024,0.005821675803744153,-3.939401228195324e-05,-0.03362407851493829,-0.03361424121281319
-0.002140771485713233,-0.0003258460273372066,1.2592836572728762e-05,-0.002153364322285962,-0.002143527020160859
0.023013918362700725,-0.005086446449439896,5.2851109971630095e-05,0.022961067252729096,0.022970904554854198
-0.0029232638836701463,0.005095296193887933,-3.3251344061110864e-05,-0.0028900125396090354,-0.0028801752374839327
-0.03511788758154932,0.007170966908320198,-5.080436504555182e-05,-0.03506708321650377,-0.03505724591437867
-0.028733698903239957,-0.005493304207041971,5.629172447142332e-05,-0.02878999062771138,-0.028780153325586276
-0.05433900396815139,-0.001704167338318907,2.4248684837457684e-05,-0.054363252652988844,-0.05435341535086374
-0.009564863194542195,0.000737722599547963,3.5987113021341375e-06,-0.009568461905844329,-0.009558624603719226
0.02272725226783301,0.005683234964352302,-3.822327988107074e-05,0.02276547554771408,0.022775312849839184
-0.037273668236307844,4.265937281555665e-05,9.47655084552444e-06,-0.03728314478715337,-0.037273307485028266
0.021165169142504103,-0.00327287474868454,3.7514543386763984e-05,0.021127654599117338,0.021137491901242443
0.008521703580366191,0.0074138011482498545,-5.2857905850260774e-05,0.008574561486216452,0.008584398788341555
0.019763696374685447,0.00792799084446738,-5.720617865910956e-05,0.019820902553344556,0.01983073985546966
0.053296806064996316,0.0016842957106795176,-4.406035099823125e-06,0.05330121210009614,0.05331104940222124
0.025666681925455626,-0.005876707172041695,5.953399225664752e-05,0.025607147933198977,0.02561698523532408
-0.005199864966909495,0.003374341747336196,-1.8698000265511743e-05,-0.005181166966643984,-0.005171329664518881
-0.027115318757143902,0.00668390656297202,-4.668551305080079e-05,-0.0270686332440931,-0.027058795941968
0.0006715429803199058,0.0017666094762833762,-5.102125883831743e-06,0.0006766451062037376,0.0006864824083288402
-0.017919412854070726,0.0006854008197059169,4.041173246181913e-06,-0.017923454027316908,-0.017913616725191806
0.03000062631107414,0.011150066851666862,-8.445383763246732e-05,0.03008508014870661,0.03009491745083171
0.024814262240323348,0.0008425387276917995,2.7123280795814968e-06,0.024811549912243765,0.02482138721436887
0.0015538111933557364,-0.016126534744455467,0.00014621221015244254,0.0014075989832032939,0.0014174362853283965
0.031027765607693603,0.004521331252766547,-2.8397578680221566e-05,0.031056163186373824,0.031066000488498925
-0.00043886956527450227,0.008058340784849571,-5.830848993755097e-05,-0.0003805610753369513,-0.0003707237732118486
-0.030859915392583592,-0.0010189969053922,1.8454504236720855e-05,-0.03087836989682031,-0.03086853259469521
-0.005760128600057368,0.002263879356942944,-9.30731536280711e-06,-0.005750821284694561,-0.005740983982569458
-0.0029944329682505266,0.0071235200993795544,-5.0403128555009694e-05,-0.002944029839695517,-0.0029341925375704144
-0.00587621785567749,-0.004296448099761374,4.61704464573435e-05,-0.005922388302134833,-0.005912551000009731
0.02456328342567149,-0.023381945257149872,0.00020756797920316706,0.02435571544646832,0.024365552748593425
-0.025000021396538785,0.006462752419523099,-4.481531114750095e-05,-0.024955206085391285,-0.02494536878326618
0.03596317751239719,0.012943228020842135,-9.961780145975837e-05,0.03606279531385695,0.03607263261598206
0.022402782354053352,-0.016647680109796337,0.00015061930395116895,0.022252163050102185,0.022262000352227286
0.026381081375469462,0.013120586781854904,-0.00010111764535705164,0.026482199020826512,0.026492036322951617
-0.028726966184040692,-0.02383846584506677,0.00021142857009738623,-0.028938394754138078,-0.028928557452012976
-0.002739646309143695,-0.006586554728659322,6.553685628051624e-05,-0.0028051831654242114,-0.0027953458632991087
-0.004433132463903311,-0.032353496411350324,0.00028343638384833216,-0.004716568847751643,-0.00470673154562654
0.02728124642633789,-0.015308264998017185,0.00013929246805158965,0.0271419539582863,0.027151791260411402
0.01953611834970781,0.04397412445198401,-0.0003620322453475159,0.019898150595055324,0.01990798789718043
-0.0037725526833652934,-0.003397292018489928,3.85666847175329e-05,-0.0038111193680828263,-0.0038012820659577237
0.00018033657247462642,0.013739523915341278,-0.00010635172050037591,0.00028668829297500233,0.000296525595100105
0.0186298909051561,-0.012145144968583543,0.00011254337347367603,0.018517347531682424,0.018527184833807525
0.015929117301598072,-0.018800014512092122,0.00016882063553345976,0.015760296666064613,0.015770133968189715
-0.0022647827555296596,0.0011093685155389998,4.5586763390964727e-07,-0.002265238623163569,-0.0022554013210384664
0.004947383332119637,-0.014195906037184347,0.00012988574469900325,0.004817497587420633,0.0048273348895457365
0.0034171210879110347,-0.005130263873571406,5.3221654374418426e-05,0.0033638994335366164,0.003373736735661719
-0.03838388953782168,-0.03897590341661106,0.00033943912470824024,-0.03872332866252992,-0.03871349136040482
0.0483793375295003,0.015024380686144978,-0.00011721718085644549,0.04849655471035674,0.048506392012481844
-0.008072760994774164,-0.012908014000787449,0.0001189946164562692,-0.008191755611230433,-0.008181918309105331
0.004906151845861961,0.00035393738571354305,6.844211595178604e-06,0.004899307634266783,0.004909144936391886
0.013785167904745155,-0.0056609945338124135,5.7709806734772314e-05,0.013727458098010382,0.013737295400135486
-0.013597721037126531,0.032876173067238,-0.0002681818228376842,-0.013329539214288847,-0.013319701912163744
-0.026938533416507315,-0.01237468831159061,0.00011448451909404184,-0.02705301793560136,-0.027043180633476254
-0.008145947016442223,-0.01716532127985071,0.0001549967643340699,-0.008300943780776292,-0.008291106478651191
-0.023626695889296334,0.025842707133391096,-0.00020870294004970142,-0.02341799294924663,-0.02340815564712153
-0.0241984247109418,0.004051376711240895,-2.4423382835101978e-05,-0.0241740013281067,-0.024164164025981597
-0.006808742230584031,-0.034411425771964765,0.00030083937412043934,-0.00710958160470447,-0.007099744302579368
0.027924544326603407,-0.01353207320412908,0.0001242720066586864,0.02780027231994472,0.027810109622069822
0.024535057509292635,0.010976067492112662,-8.298240269420953e-05,0.024618039911986845,0.024627877214111946
-0.053568302270718626,-0.005941674758709992,6.008339414595876e-05,-0.05362838566486459,-0.05361854836273948
-0.010537595999285498,0.029506792849203878,-0.00023968847788634408,-0.010297907521399155,-0.010288070219274052
-0.01281807389531675,0.004379678623643857,-2.719968560681473e-05,-0.012790874209709936,-0.012781036907584833
-0.0010335784547469418,-0.0018046635646612463,2.5098536578188487e-05,-0.0010586769913251302,-0.0010488396892000275
-0.00911793819852369,0.023494191121040897,-0.00018884258813528225,-0.008929095610388408,-0.008919258308263305
-0.01187758015799767,-0.0005559347650669899,1.4538594352887594e-05,-0.011892118752350557,-0.011882281450225454
-0.004028787473099205,0.0012830081640498037,-1.0125253885716424e-06,-0.004027774947710633,-0.00401793764558553
0.039787823906186626,0.0013171307943036226,-1.3010852457421617e-06,0.03978912499143237,0.03979896229355747
0.0260842084673627,-0.003856841152281021,4.245288667275153e-05,0.02604175558068995,0.026051592882815052
0.020262303399891213,-0.016070691127224812,0.0001457399656011844,0.020116563434290028,0.02012640073641513
0.00901607076210742,-0.0029854738442266493,3.5084122187572714e-05,0.008980986639919848,0.00899082394204495
-0.04745512957372722,-0.01680350261882635,0.00015193702537578334,-0.047607066599103,-0.0475972292969779
0.0019014852100391888,0.002859362131449217,-1.4343047458512228e-05,0.001915828257497701,0.0019256655596228036
0.001138713789170076,-0.00203393834902843,2.7037411117978445e-05,0.0011116763780520977,0.0011215136801772004
-0.02148500200226411,-0.03101701864061035,0.00027213438773116184,-0.021757136389995272,-0.021747299087870167
-0.009945065032460287,-0.0101129704925228,9.535818076737716e-05,-0.010040423213227664,-0.010030585911102561
-0.013241149587150614,-0.0032404516759250157,3.7240355928912004e-05,-0.013278389943079526,-0.013268552640954423
-0.020227439468978314,-0.004662369010297374,4.9264876309161765e-05,-0.020276704345287475,-0.020266867043162374
-0.03251918849789737,0.00535903441522545,-3.548166050839128e-05,-0.03248370683738898,-0.03247386953526387
-0.012691782306881061,0.03133081639370272,-0.00025511343104971703,-0.012436668875831345,-0.012426831573706242
-0.008475765335763885,0.00941267817151159,-6.976151685689719e-05,-0.008406003818906988,-0.008396166516781885
-0.0019945774124977556,0.007203887818266752,-5.1082762490339595e-05,-0.001943494650007416,-0.0019336573478823133
0.03854389386374235,0.0007329020475055348,3.6394765596333154e-06,0.03854025438718272,0.03855009168930782
-0.015876284781173866,0.015378879091830777,-0.00012021501568192534,-0.01575606976549194,-0.015746232463366837
-0.009916907321959378,-0.0001551316306374062,1.114918109944846e-05,-0.009928056503058827,-0.009918219200933723
0.022077994239341647,0.0011961033180916125,-2.7760988673060167e-07,0.02207827184922838,0.02208810915135348
0.05244998211778351,-0.028819473359129044,0.00025355072791850646,0.052196431389865,0.052206268691990104
0.005245896636462799,0.005981890060832162,-4.074887276012001e-05,0.0052866455092229194,0.005296482811348022
-0.007762523274194688,0.011416551196032687,-8.670737681676791e-05,-0.00767581589737792,-0.007665978595252818
-0.03392286717964821,-0.012819816608358736,0.00011824877046571304,-0.03404111595011392,-0.03403127864798882
-0.021640003156632948,0.022513373250030444,-0.0001805482490804143,-0.021459454907552532,-0.02144961760542743
-0.007094681612274223,0.008220020548377116,-5.967574354970914e-05,-0.007035005868724514,-0.007025168566599411
-0.0038528443412403357,0.011200166146517754,-8.487750501270684e-05,-0.003767966836227629,-0.0037581295341025263
0.017440234901649143,-0.0010493573466290318,1.8711248940214326e-05,0.01742152365270893,0.01743136095483403
-0.03055020573077305,-0.006921964711350426,6.837326883074979e-05,-0.0306185789996038,-0.030608741697478698
0.03743045898143138,-0.004158621107493432,4.500490508766469e-05,0.037385454076343715,0.037395291378468816
0.005772839635311389,6.349921218862242e-05,9.300317623518486e-06,0.00576353931768787,0.005773376619812973
-0.018107300251337333,0.022022522061804883,-0.00017639733961907536,-0.01793090291171826,-0.017921065609593154
-0.0034794844212286957,-0.004796355216742376,5.039793786704863e-05,-0.0035298823590957443,-0.0035200450569706416
0.0206005644260292,0.006051112519185553,-4.133425620057771e-05,0.02064189868222978,0.02065173598435488
0.007047597843462761,-0.001268524584838171,2.0564648472538137e-05,0.007027033194990222,0.007036870497115325
0.04497891588006997,-0.003704038628435491,4.1160703915203814e-05,0.04493775517615477,0.04494759247827987
0.016254876341988078,0.005483064382283187,-3.653052659265333e-05,0.016291406868580733,0.016301244170705834
-0.011516334219951463,-0.0059674054882985494,6.0300987444005776e-05,-0.011576635207395469,-0.011566797905270366
0.028867320691788656,-0.028178764954173263,0.0002481325428475798,0.028619188148941075,0.02862902545106618
0.0015098243573796744,-0.0053787488495717906,5.532298093249248e-05,0.0014545013764471818,0.0014643386785722847
0.017587982745204345,-0.004023574358396065,4.3862874993823444e-05,0.017544119870210522,0.017553957172335623
-0.030308710248560522,0.00012045854325926086,8.81863797819184e-06,-0.030317528886538714,-0.030307691584413612
-0.014577636825464646,0.012192216013040102,-9.326682804145205e-05,-0.014484369997423195,-0.014474532695298092
0.01860465861292382,0.0014827787168125717,-2.7018958076543957e-06,0.018607360508731473,0.018617197810856575
0.0013952507163141892,-0.016935392189468268,0.0001530523566202865,0.0012421983596939026,0.0012520356618190053
0.0018999197621070163,-0.0036630286052607985,4.081390044953239e-05,0.0018591058616574839,0.0018689431637825865
-0.02648544121483898,-0.004040306703826824,4.400437297248783e-05,-0.026529445587811465,-0.026519608285686364
0.08239725027724432,-0.014512432962598854,0.000132562471660226,0.08226468780558409,0.08227452510770919
0.021475692861264273,0.0032893427453595248,-1.7979201635758402e-05,0.02149367206290003,0.021503509365025132
-0.02337330984356789,-0.007684786454732473,7.482411191287868e-05,-0.02344813395548077,-0.023438296653355666
0.013830514804088478,0.01658676839931239,-0.00013042959654664877,0.013960944400635127,0.01397078170276023
-0.01334521787215015,-0.01471920868888299,0.00013431108170578964,-0.01347952895385594,-0.013469691651730837
-0.022302391632845198,0.000390794428747121,6.532528029334303e-06,-0.022308924160874533,-0.02229908685874943
0.0017215862047936792,0.029504621333996228,-0.00023967011435125016,0.0019612563191449294,0.001971093621270032
-0.00227109357622024,0.009080835857702363,-6.695527449036075e-05,-0.0022041383017298794,-0.0021943009996047767
0.0021532916990376627,0.013219002387319545,-0.00010194990221547622,0.002255241601253139,0.002265078903378242
0.011663512340744031,-0.011471189788493708,0.00010684403526148505,0.011556668305482546,0.01156650560760765
-0.0012136200436422273,0.006438699367075529,-4.461190521638844e-05,-0.001169008138425839,-0.001159170836300736
-0.012454431051544756,0.0048322900955937165,-3.102721885170499e-05,-0.012423403832693051,-0.012413566530567948
-0.009843116313305478,0.004863332840635781,-3.128973349400799e-05,-0.00981182657981147,-0.009801989277686367
0.042249166460763155,0.011130616053760978,-8.428935091430332e-05,0.04233345581167746,0.04234329311380256
0.014724276972724493,-0.0007131195389205036,1.5867835843217138e-05,0.014708409136881276,0.014718246439006379
-0.0032311307276767787,0.00354113887216001,-2.0108529118580633e-05,-0.003211022198558198,-0.0032011848964330954
-0.02740603943929998,-0.00036434366656679096,1.2918393928502876e-05,-0.02741895783322848,-0.02740912053110338
-0.017331304776889822,0.0008268557718451586,2.844951838812712e-06,-0.017334149728728633,-0.01732431242660353
0.006105138949692668,0.015209797205957498,-0.00011878516562421312,0.006223924115316881,0.006233761417441984
0.015323321594634676,-0.002564020390809607,3.152007840145711e-05,0.015291801516233218,0.015301638818358321
-0.015695757349797557,-0.004825492514895946,5.064433899530245e-05,-0.01574640168879286,-0.015736564386667755
0.012266105602422694,-0.008331340584428193,8.029173166933418e-05,0.01218581387075336,0.012195651172878463
0.015328704772116009,0.021194392772258208,-0.0001693942197618783,0.015498098991877887,0.01550793629400299
-0.004714080940876775,-0.005667432349210744,5.7764248466784587e-05,-0.004771845189343559,-0.004762007887218457
-0.027819454291791557,0.004850385958537151,-3.1180247489517876e-05,-0.02778827404430204,-0.027778436742176935
-0.009559092518464762,-0.0025877588476783675,3.172082393814479e-05,-0.009590813342402906,-0.009580976040277805
-0.019925261859617516,-0.003083722237648967,3.591496500837209e-05,-0.01996117682462589,-0.019951339522500784
0.007623881023129053,0.004416438203773465,-2.7510544972372018e-05,0.007651391568101425,0.007661228870226528
0.02080711756140774,-0.008034932488803492,7.77851406738151e-05,0.020729332420733923,0.020739169722859028
-0.009697318272623101,0.02086134059079603,-0.0001665777460844923,-0.009530740526538609,-0.009520903224413506
-0.015780028575133498,-0.0006720045633211713,1.5520144841724515e-05,-0.01579554871997522,-0.01578571141785012
-0.01140680320325782,-0.0016465185803191673,2.3761175016241573e-05,-0.011430564378274062,-0.011420727076148959
-0.0012820805945253921,0.00612227817348443,-4.193607238201443e-05,-0.0012401445221433777,-0.001230307220018275
0.026957643026357392,0.00014583690635494584,8.604024486334987e-06,0.026949039001871056,0.02695887630399616
-0.0028749704360963024,0.003818756605307172,-2.245621840364044e-05,-0.002852514217692662,-0.0028426769155675594
-0.006205398511397675,0.007121020299379444,-5.038198886191976e-05,-0.006155016522535755,-0.006145179220410653
0.013812669126069821,-0.0036413861990395313,4.063088027782871e-05,0.013772038245791993,0.013781875547917094
-0.012380204819870455,0.002027485447987365,-7.308237563211982e-06,-0.012372896582307244,-0.01236305928018214
0.005858293668491665,0.007243744595420987,-5.141981346904063e-05,0.005909713481960706,0.005919550784085808
0.009519064586946291,-0.015877250249970554,0.00014410412242332204,0.009374960464522969,0.009384797766648072
0.012096754632271667,0.01052407519882892,-7.916010556699627e-05,0.012175914737838663,0.012185752039963766
0.012871534023813469,0.0017739084702186325,-5.163850218438404e-06,0.012876697874031907,0.01288653517615701
-0.0012103151724883743,0.0023892585241640507,-1.0367591030783555e-05,-0.0011999475814575907,-0.001190110279332488
0.014722813866916429,0.002146971596890701,-8.318678604976139e-06,0.014731132545521405,0.014740969847646508
0.01026993630972206,1.688528477283846e-05,9.694510806670015e-06,0.01026024179891539,0.010270079101040493
-0.010460995566090814,-0.002690583513671685,3.2590366253960765e-05,-0.010493585932344774,-0.010483748630219673
-0.012243918254339126,0.0011248494058304637,3.2495265290881134e-07,-0.012244243206992035,-0.012234405904866932
0.019470341121077706,-0.0004392872986367369,1.3552158782064338e-05,0.01945678896229564,0.019466626264420743
0.015776917598016915,0.0009465333975153811,1.8328915634756063e-06,0.01577508470645344,0.015784922008578544
-0.010043149782669625,0.007759284493458862,-5.5779504332169914e-05,-0.009987370278337454,-0.009977532976212351
-0.010852896668935075,0.003678053944041082,-2.1266358784483124e-05,-0.010831630310150591,-0.01082179300802549
0.01150857965654084,0.01928286287479275,-0.00015322926442031063,0.01166180892096115,0.011671646223086253
0.005246755016614868,0.00392275298702649,-2.3335669396484653e-05,0.005270090686011353,0.005279927988136456
-0.015364715549242458,-0.0021209574072836856,2.777329246224965e-05,-0.015392488841704707,-0.015382651539579606
0.013043469370413563,-0.008052299681943542,7.793200727626245e-05,0.0129655373631373,0.012975374665262404
0.01763767554441409,0.004376080778473401,-2.716926023571099e-05,0.0176648448046498,0.017674682106774902
0.038072701839942935,-0.004242126544221403,4.5711073302598485e-05,0.03802699076664034,0.03803682806876544
-0.020480856081908083,-0.011808492232419865,0.00010969645151189135,-0.020590552533419973,-0.02058071523129487
-0.019374977038665753,-0.0012174356326716262,2.0132612002004927e-05,-0.019395109650667756,-0.019385272348542655
0.018888596765475496,-0.016205413633636034,0.000146879253719319,0.018741717511756177,0.01875155481388128
-0.017059951815717844,0.00021216287934855416,8.04313533003704e-06,-0.017067994951047882,-0.017058157648922777
-0.02458774896224125,0.015357313493959523,-0.00012003264504416276,-0.02446771631719709,-0.024457879015071987
-0.0014828899747225677,0.002540373205550228,-1.1645500457835522e-05,-0.0014712444742647321,-0.0014614071721396294
0.01877041888482589,-0.0015753666901773267,2.3159475232138787e-05,0.01874725940959375,0.018757096711718855
-0.002098962162520479,-0.014284032792181156,0.00013063099334031906,-0.002229593155860798,-0.0022197558537356953
0.01484076619805963,0.014922967493543604,-0.00011635957474124916,0.014957125772800879,0.014966963074925982
-0.011054144807397193,-0.007468562068020934,7.299559876245173e-05,-0.011127140406159645,-0.011117303104034542
-0.008208694609355471,-0.001378858764733426,2.1497695396376544e-05,-0.008230192304751848,-0.008220355002626745
-0.027060257933197995,-0.006070216944686235,6.117041805208158e-05,-0.027121428351250077,-0.027111591049124976
6.029868100076996e-05,0.02161695515261708,-0.0001729676412482933,0.00023326632224906325,0.00024310362437416594
0.00265447786216777,0.012818562518186694,-9.856356093454801e-05,0.002753041423102318,0.002762878725227421
-0.014019356030015806,0.0026032365675492386,-1.2177107858108042e-05,-0.014007178922157698,-0.013997341620032595
0.0020138492583432477,-0.001298238661417761,2.0815927158559146e-05,0.0019930333311846886,0.0020028706333097912
0.007308211856018598,0.0005150801927265025,5.481498784652751e-06,0.007302730357233946,0.007312567659359048
0.0011486758573036049,0.003701760406026544,-2.1466833754720145e-05,0.001170142691058325,0.0011799799931834277
0.022102736968687475,0.0038427480627742927,-2.2659103453489435e-05,0.022125396072140965,0.022135233374266067
0.029837582917548122,0.006001641860553519,-4.091590491631839e-05,0.02987849882246444,0.029888336124589545
-0.01921979265380802,4.832031784740565e-05,9.428678759530786e-06,-0.01922922133256755,-0.01921938403044245
-0.011991806489627055,0.00091095635360805,2.1337507478961786e-06,-0.01199394024037495,-0.011984102938249848
-0.007104732754360632,-0.005122452280258649,5.315559521561865e-05,-0.007157888349576251,-0.007148051047451148
-0.019737702606027363,0.006185094896691501,-4.246728537883562e-05,-0.019695235320648527,-0.019685398018523426
-0.033700284379325596,0.0008368043854836138,2.760820852742668e-06,-0.03370304520017834,-0.03369320789805324
0.03305002272368429,0.0025483530061645165,-1.1712982070723514e-05,0.03306173570575501,0.03307157300788012
0.010542372778915121,0.006030102155631267,-4.11565809316659e-05,0.010583529359846787,0.01059336666197189
-0.004341826131883719,0.0033795554893063517,-1.87420905547726e-05,-0.004323084041328947,-0.004313246739203844
0.016292230167807675,-0.0016443283858672553,2.374265351911435e-05,0.01626848751428856,0.016278324816413663
-0.016090610650484338,0.0006126972471360848,4.6559949161552965e-06,-0.016095266645400494,-0.016085429343275393
0.0012114147478134996,0.0007713239125555216,3.3145599922825813e-06,0.001208100187821217,0.0012179374899463197
0.02419840301963383,0.0010091453555356455,1.303410174464805e-06,0.024197099609459365,0.024206936911584466
-0.022445425945979536,-0.0015082191889665975,2.2591638778307485e-05,-0.022468017584757843,-0.02245818028263274
-0.0013292664740186533,-0.0001907894500615681,1.1450723366369598e-05,-0.0013407171973850228,-0.00133087989525992
0.008046915606746419,0.011314828013585299,-8.584714925577374e-05,0.008132762756002193,0.008142600058127294
0.004741640738889608,-0.0013130618315739806,2.0941280093877323e-05,0.004720699458795731,0.004730536760920833
-0.01732371637657082,0.0050071702616640845,-3.2506102377618824e-05,-0.0172912102741932,-0.017281372972068096
0.01580536835712243,-0.002122957701494954,2.7790208057782852e-05,0.015777578149064646,0.015787415451189748
0.0006583834540294653,-0.001844782063018524,2.543780081631316e-05,0.0006329456532131522,0.0006427829553382548
0.02320426800751041,-0.001376327172630698,2.1476286851661696e-05,0.023182791720658746,0.02319262902278385
-0.006663067278495749,0.0037251273626697223,-2.1664437679778374e-05,-0.006641402840815971,-0.006631565538690868
-0.002353687175760566,0.00900758006769764,-6.633578296396206e-05,-0.002287351392796604,-0.002277514090671501
-0.004187504914614837,-0.001710746243041017,2.4304319698921446e-05,-0.004211809234313758,-0.004201971932188656
0.00035528377006133205,0.007384542591010179,-5.261047928802643e-05,0.0004078942493493585,0.00041773155147446116
0.003019573530833375,0.00137641065101346,-1.8023885408879118e-06,0.0030213759193742627,0.0030312132214993653
0.012159811969493672,-0.010115654884377157,9.538088147140616e-05,0.012064431088022267,0.012074268390147368
-0.007231506770993379,-0.0012949592195925508,2.07881943824618e-05,-0.00725229496537584,-0.007242457663250738
0.020677863361776128,0.0024135455272700224,-1.0572975378215998e-05,0.020688436337154344,0.020698273639279445
-0.006791368662882213,0.00583628034196626,-3.9517516344566965e-05,-0.006751851146537646,-0.006742013844412544
0.008402413978101153,0.0002634624737614111,7.609317552023786e-06,0.00839480466054913,0.008404641962674231
-0.0032755495053520267,0.00422090718967616,-2.5857026439930913e-05,-0.003249692478912096,-0.0032398551767869933
0.02530995103793532,0.0022443057531671418,-9.141790130202109e-06,0.02531909282806552,0.025328930130190625
-0.008771937350934733,-0.017852526697772375,0.0001608081538948172,-0.00893274550482955,-0.008922908202704447
0.01270700136948677,0.007662558220206783,-5.496153340241918e-05,0.012761962902889189,0.012771800205014292
-0.002352667408793252,0.01669359840810869,-0.00013133301025920497,-0.002221334398534047,-0.0022114970964089444
-0.02695112614428874,-0.00272251746839014,3.28604174588035e-05,-0.026983986561747542,-0.02697414925962244
-0.006866675229374342,0.0023541990752451447,-1.0071108916208454e-05,-0.006856604120458134,-0.0068467668183330305
-0.006449367159449215,0.002884262567260709,-1.4553619332596986e-05,-0.006434813540116618,-0.006424976237991515
0.013157916751484144,0.006240171597036381,-4.293304445621986e-05,0.013200849795940365,0.013210687098065468
-0.0012121158743142457,0.004184752099316791,-2.5551278974612962e-05,-0.0011865645953396328,-0.0011767272932145302
-0.019186356682112993,-0.0027857656113878804,3.339527878027757e-05,-0.01921975196089327,-0.019209914658768167
0.011077051849494257,0.0007494929370688297,3.4991748101167925e-06,0.01107355267468414,0.011083389976809244
-0.00495332664501591,0.005507371620330659,-3.67360820579564e-05,-0.004916590562957953,-0.004906753260832851
0.012591516426432081,0.002384924061824778,-1.0330936416991247e-05,0.012601847362849073,0.012611684664974174
-0.003701624059287756,-0.003234911055292722,3.7193501372671815e-05,-0.0037388175606604276,-0.003728980258535325
-0.0022059739453029747,0.006257435156610036,-4.307903467584166e-05,-0.002162894910627133,-0.0021530576085020303
0.01698858631374134,0.003075691142146564,-1.617244536729975e-05,0.01700475875910864,0.01701459606123374
-0.009725405076995597,0.0019247226272978146,-6.439218245532109e-06,-0.009718965858750065,-0.009709128556624962
-0.0003465402446717336,-0.02052856505826517,0.00018343821615387202,-0.0005299784608256056,-0.0005201411587005029
0.004045289607463642,-0.006111960522950599,6.152342486580466e-05,0.003983766182597838,0.003993603484722941
-0.01318061956442984,-0.000994377240208233,1.8246306714541963e-05,-0.013198865871144383,-0.01318902856901928
-0.002916368799893432,0.01055051646463201,-7.938370755273984e-05,-0.002836985092340692,-0.002827147790215589
0.003802312762120952,0.005561085699577806,-3.719031805677328e-05,0.003839503080177725,0.003849340382302828
0.00378790994379985,-0.015739677754675885,0.00014294073322097947,0.0036449692105788704,0.003654806512703973
0.015384579609851068,0.0016152009236127807,-3.821731318464606e-06,0.015388401341169533,0.015398238643294634
-0.021212138065869968,0.017219001487115193,-0.00013577610964243906,-0.02107636195622753,-0.021066524654102425
-0.0034464639901168326,-0.0073780374502926405,7.223007246603825e-05,-0.003518694062582871,-0.0035088567604577682
-0.01817112987378744,-0.008341232507744434,8.037538325064674e-05,-0.018251505257038086,-0.018241667954912985
0.0032239316114739403,0.008922733898683255,-6.561827677437057e-05,0.003289549888248311,0.0032993871903734136
-0.007022139045299691,-0.0013617034323515353,2.1352620405820177e-05,-0.007043491665705511,-0.007033654363580409
0.006831979351346051,-0.018870951812180237,0.00016942052062523687,0.006662558830720815,0.006672396132845917
0.021785782486406058,0.007080513662183874,-5.003944230684277e-05,0.0218358219287129,0.021845659230838005
0.014796673928946902,-0.006049325659529536,6.0993749776040615e-05,0.014735680179170861,0.014745517481295965
0.007462638358050944,-0.01120034817237281,0.00010455364857434119,0.0073580847094766024,0.0073679220116017055
0.0034188818176306146,-0.019494949042855536,0.0001746973867524696,0.003244184430878145,0.0032540217330032477
-0.014764350929607706,0.013398228752857344,-0.00010346553961083763,-0.014660885389996868,-0.014651048087871765
0.0030547259535835813,0.004310201897316901,-2.6612151935569156e-05,0.0030813381055191506,0.0030911754076442532
-0.0021261079346931444,0.014985846366661448,-0.00011689131331213195,-0.0020092166213810125,-0.00199937931925591
0.018657222548363217,-0.003550567117658776,3.986286383370786e-05,0.01861735968452951,0.01862719698665461
0.007631442894641349,0.00291397966743423,-1.480492358780262e-05,0.007646247818229152,0.007656085120354254
-0.0017391380646420984,0.009340748456551973,-6.91532393554071e-05,-0.0016699848252866912,-0.0016601475231615885
0.017871129309207312,0.003161136890789118,-1.689502193425018e-05,0.01788802433114156,0.017897861633266666
-0.00634936915958717,-0.002747836267090409,3.3074527241148346e-05,-0.006382443686828319,-0.006372606384703216
0.0005001265948754163,0.007060045042073693,-4.9866348320490107e-05,0.0005499929431959065,0.0005598302453210092
-0.012829106609620666,0.006684706201916635,-4.6692275240524436e-05,-0.012782414334380142,-0.01277257703225504
0.007032348955422041,-0.0018295015230987977,2.530858010900173e-05,0.007007040375313039,0.0070168776774381415
-0.009497211168538744,0.004962987972138233,-3.2132472471008115e-05,-0.009465078696067736,-0.009455241393942633
-0.0052453702418751025,0.0003452097520288966,6.918017298629508e-06,-0.005252288259173732,-0.00524245095704863
-0.00096378589634738,-0.0001800552456384663,1.135994898959591e-05,-0.0009751458453369759,-0.0009653085432118732
0.010839953214753617,0.002183677516658822,-8.629084188801733e-06,0.010848582298942418,0.010858419601067522
0.005558307723181999,-0.0015200063176690204,2.2691317265854352e-05,0.005535616405916145,0.005545453708041247
0.010608628457641878,-0.00400444374710851,4.370109595101054e-05,0.010564927361690866,0.01057476466381597
-0.013591175952064605,-0.0027933795260068894,3.3459666258576487e-05,-0.01362463561832318,-0.013614798316198079
-0.005825030302421652,-0.007776699229565143,7.56013772344725e-05,-0.005900631679656125,-0.005890794377531022
-0.01661972260810962,0.00019023558280406583,8.228564692074716e-06,-0.016627951172801695,-0.016618113870676594
0.002578062245238266,8.367659155239515e-05,9.129686530194898e-06,0.0025689325587080715,0.002578769860833174
0.02799998692103789,0.003925413156908419,-2.3358165266101655e-05,0.02802334508630399,0.028033182388429095
0.0016676312966759088,-0.011017851653977395,0.00010301035695553629,0.0015646209397203726,0.0015744582418454752
0.01570471872959156,0.00573117089721964,-3.8628652674394216e-05,0.015743347382265953,0.015753184684391058
0.005299684463689891,0.013514947433656221,-0.00010445257740979764,0.005404137041099689,0.005413974343224792
0.004619619216496229,0.0052767819301140495,-3.478608794616157e-05,0.004654405304442391,0.004664242606567493
-0.0005950597350409259,-0.0015926699031209024,2.3305800782615085e-05,-0.000618365535823541,-0.0006085282336984383
-0.005088327665009551,0.008979584523029382,-6.609903713543732e-05,-0.005022228627874114,-0.005012391325749011
-0.004896531520597991,0.006249847099511818,-4.3014865863057406e-05,-0.004853516654734933,-0.004843679352609831
-0.014215430063817425,0.0035554240499382495,-2.022933249243201e-05,-0.014195200731324993,-0.01418536342919989
0.005768169028954162,0.002300662213150728,-9.61837156377081e-06,0.0057777874005179326,0.005787624702643036
-0.018969882425750817,-0.00175271131343413,2.465919957273868e-05,-0.018994541625323557,-0.018984704323198452
0.011804332415147112,-0.0033793036283190636,3.8414564928998975e-05,0.011765917850218114,0.011775755152343215
0.007999949985080246,-0.006855308680100647,6.780958851906465e-05,0.00793214039656118,0.007941977698686284
-0.007771100492069527,-0.009069835815006422,8.653685628814674e-05,-0.007857637348357673,-0.007847800046232572
0.016997153332795722,0.0038199203649145197,-2.2466059799323572e-05,0.017019619392595046,0.017029456694720148
-0.007864935256509664,0.004544163641626575,-2.8590662004083268e-05,-0.00783634459450558,-0.007826507292380477
-0.00990918227930937,0.008074036650198346,-5.844122286668099e-05,-0.009850741056442689,-0.009840903754317586
-0.02229641161822915,-0.011111495877577093,0.00010380226436671098,-0.022400213882595863,-0.02239037658047076
-0.013876221922361043,0.004895437361786659,-3.1561227103056146e-05,-0.013844660695257987,-0.013834823393132883
-0.01211078373548613,-0.00806733006032423,7.805911247907033e-05,-0.0121888428479652,-0.012179005545840099
-0.004086380516850285,-0.006204391417766519,6.23050716968909e-05,-0.004148685588547176,-0.004138848286422073
-0.022860457318712668,-0.0003685605881837972,1.2954054552858362e-05,-0.022873411373265526,-0.022863574071140425
-0.01619678803407054,0.00880379946585852,-6.46125013492853e-05,-0.016132175532721258,-0.016122338230596153
0.006707354445744773,0.0021779408643529674,-8.580571880175435e-06,0.0067159350176249485,0.006725772319750052
-0.005027267229243959,-0.007688267521873571,7.485354974429919e-05,-0.005102120778988258,-0.005092283476863155
0.005356994194122278,-0.01192558460112425,0.00011068664942271372,0.005246307544699564,0.005256144846824667
-0.0009082282896019089,-0.0008273801774386635,1.6834087075486153e-05,-0.000925062376677395,-0.0009152250745522924
-0.028484806869969237,0.0031831687125787322,-1.7081335219642532e-05,-0.028467725534749595,-0.028457888232624493
-0.014348127639336683,0.0039531157988739185,-2.3592434147174083e-05,-0.014324535205189509,-0.014314697903064406
-0.0031645689956499856,0.004080919686204165,-2.4673214591106175e-05,-0.0031398957810588797,-0.0031300584789337766
-0.0012698703342013395,0.010592724697279676,-7.974064374123509e-05,-0.0011901296904601045,-0.0011802923883350018
-0.0012714243274868364,-0.02278464425831217,0.00020251687119565565,-0.001473941198682492,-0.0014641038965573893
0.0035009742229299423,-0.0012248353901096465,2.0195188448589746e-05,0.0034807790344813525,0.003490616336606455
-0.017760905838743124,-0.009733809463420173,9.21517851411128e-05,-0.017853057623884238,-0.017843220321759133
0.008072328238386328,-0.010760206333523925,0.00010083156545213554,0.007971496672934193,0.007981333975059296
-0.0006405685731863953,-0.0009564073932939454,1.792521266285622e-05,-0.0006584937858492515,-0.0006486564837241488
0.03141024097026324,-0.004186874918536865,4.524383495967546e-05,0.03136499713530356,0.03137483443742867
0.013983864470848761,0.007377489898070522,-5.255083781103016e-05,0.014036415308659792,0.014046252610784894
-0.00919396957524754,-0.013979844477308045,0.00012805860850246203,-0.009322028183750003,-0.0093121908816249
0.013918865535291758,0.0006687560771996282,4.181930406005993e-06,0.013914683604885751,0.013924520907010855
-0.026235470867255972,0.012611779574887017,-9.68148898579045e-05,-0.02613865597739807,-0.026128818675272964
0.004072655402753256,-0.01743184580508239,0.00015725064331002274,0.003915404759443233,0.003925242061568336
-0.02090483907154672,0.0017543350239683786,-4.99832631795667e-06,-0.020899840745228764,-0.020890003443103662
-0.02039513724552955,0.003045016966140013,-1.5913047548859796e-05,-0.02037922419798069,-0.020369386895855587
0.016916085284172322,0.005395190996116739,-3.578742057847254e-05,0.016951872704750796,0.016961710006875897
-0.01855406012346028,0.013423475684721353,-0.0001036790416474181,-0.018450381081812864,-0.01844054377968776
-0.00032595269825175244,-0.006468448774604507,6.453808693068774e-05,-0.0003904907851824402,-0.00038065348305733746
-0.009455523795433463,-0.002827986549257977,3.375232241116933e-05,-0.009489276117844631,-0.00947943881571953
-0.019091505586842916,-0.011725787945559007,0.00010899705826387854,-0.019200502645106796,-0.01919066534298169
-0.008389261959748318,0.009184457300265958,-6.78315547900779e-05,-0.00832143040495824,-0.008311593102833137
-0.00642973372637845,0.012944354874931063,-9.962733076194096e-05,-0.0063301063956165094,-0.006320269093491406
-0.015667608387552323,0.008282747245164312,-6.020619523327084e-05,-0.015607402192319052,-0.01559756489019395
-0.03287193315330328,0.01011922818616795,-7.573649503989495e-05,-0.03279619665826338,-0.03278635935613828
-0.013237954530720741,0.014409702179091433,-0.00011201911901649375,-0.013125935411704247,-0.013116098109579146
-0.002900649888591622,-0.0013361790618444669,2.113677219443962e-05,-0.0029217866607860617,-0.002911949358660959
0.005454531582919087,0.0010015590452223666,1.3675642154683124e-06,0.0054531640187036184,0.005463001320828721
0.01518987638656144,0.010453846497412655,-7.856621277798186e-05,0.015268442599339422,0.015278279901464525
0.01104380011801509,-0.006961116506509657,6.870435809131032e-05,0.010975095759923779,0.010984933062048882
-0.007751914019032857,-0.01809053260189253,0.00016282086361818225,-0.007914734882651039,-0.007904897580525937
-0.00710229985877775,-0.004433512667192274,4.732954034039998e-05,-0.007149629399118149,-0.007139792096993047
-0.01788269014206334,0.003105840267646931,-1.642740306790749e-05,-0.01786626273899543,-0.01785642543687033
0.00036417440696467906,-0.0067161276923011215,6.663259701338234e-05,0.0002975418099512967,0.0003073791120763994
-0.00728062834328469,0.005554424471774233,-3.713398702574545e-05,-0.007243494356258944,-0.007233657054133842
0.0066006711461032985,-0.008129889770918997,7.85881520349186e-05,0.00652208299406838,0.006531920296193483
0.0018214657803596879,0.01630870818887753,-0.000128078165428618,0.001949543945788306,0.0019593812479134086
0.01781817349520587,-0.0006708332980633891,1.551023997410498e-05,0.017802663255231763,0.017812500557356867
-0.02922468355832064,0.013546192203295337,-0.00010471680048396643,-0.029119966757836676,-0.02911012945571157
-0.043132667703405625,0.0009078513609139804,2.1600082855376677e-06,-0.043134827711691165,-0.04312499040956606
0.009615384615384581,-0.0056430132712504966,5.7557747221246634e-05,0.009557826868163335,0.009567664170288438
0.011809503464471627,-0.004104971538103408,4.455121461992261e-05,0.011764952249851704,0.011774789551976807
0.01129522403770622,-0.020308668519432915,0.0001815786492516217,0.011113645388454598,0.0111234826905797
-0.019359659193874723,-0.0032339665839667964,3.718551440012944e-05,-0.019396844708274852,-0.01938700740614975
-0.005315086895877452,-0.006450532698506817,6.43865786700012e-05,-0.0053794734745474535,-0.00536963617242235
-0.0007633762282925893,-0.004132299323336697,4.4782313504886845e-05,-0.0008081585417974761,-0.0007983212396723735
-0.007639448457145814,-0.025556664705103427,0.00022595861112748055,-0.007865407068273295,-0.007855569766148192
0.0023095217224107234,0.005015682586245518,-3.257808730806341e-05,0.0023420998097187866,0.0023519371118438893
-0.026113682076343903,-0.047820446201610634,0.00041423347625130127,-0.026527915552595205,-0.0265180782504701
-0.03785492778850441,-0.0005749176607442452,1.4699124230700826e-05,-0.03786962691273511,-0.03785978961061001
0.002458994544279225,-0.06663446415643826,0.0005733352305259746,0.0018856593137532504,0.001895496615878353
-0.00981192886759008,0.0474068481332115,-0.00039106125770068886,-0.009420867609889392,-0.009411030307764289
0.014863774589500611,-0.04415240397919251,0.0003832144800038491,0.014480560109496762,0.014490397411621865
0.01057771479612879,0.04629002144148742,-0.00038161675274163583,0.010959331548870426,0.010969168850995529
0.02334943317806837,0.00526166928318772,-3.465828703497471e-05,0.023384091465103344,0.023393928767228445
0.042879628218585264,0.021784622088531824,-0.00017438552570561358,0.04305401374429088,0.04306385104641598
-0.013957028896223522,-0.00973854541245922,9.219183494876564e-05,-0.014049220731172287,-0.014039383429047186
0.007651138776179511,0.0009473866272851073,1.8256761800583722e-06,0.007649313099999453,0.007659150402124556
-0.02429762285272996,-0.0445937143129993,0.0003869464445664845,-0.024684569297296444,-0.024674731995171343
-0.03579766727558353,-0.015008981502439234,0.0001367615610817847,-0.03593442883666532,-0.035924591534540216
0.01170294592990051,0.00025804116011829414,7.655163182296069e-06,0.011695290766718214,0.011705128068843317
0.013163140316040156,0.034284877594586316,-0.00028009460840501603,0.013443234924445172,0.013453072226570275
0.04566928601706932,0.013119972745138542,-0.00010111245272254918,0.04577039846979187,0.04578023577191697
0.010542194739293853,-0.01556552007023193,0.00014146795939977994,0.010400726779894074,0.010410564082019175
0.003278664060051728,0.015121610152536658,-0.00011803940706603286,0.0033967034671177608,0.0034065407692428634
0.008986949805380062,0.028280001568408375,-0.00022931405146812362,0.009216263856848187,0.009226101158973288
0.018770711352585456,0.002347024984931334,-1.0010440835791356e-05,0.01878072179342125,0.01879055909554635
-0.0014451197646793146,0.004921982065451136,-3.1785703816635345e-05,-0.0014133340608626793,-0.0014034967587375766
0.00832132614558212,-0.01187143263889856,0.00011022871044294823,0.008211097435139172,0.008220934737264275
0.004664483561249044,-0.025281938303220453,0.000223635372540694,0.00444084818870835,0.004450685490833453
-0.0003571510314941406,-0.007436289416773878,7.272268335220658e-05,-0.0004298737148463472,-0.0004200364127212445
-0.004644485953184785,0.028646463529026667,-0.00023241305673904957,-0.004412072896445735,-0.004402235594320633
0.00861449267265968,-0.010612179635699603,9.957976972408409e-05,0.008514912902935596,0.008524750205060699
0.0007117600531016954,-0.026705492278710663,0.00023567373326454256,0.0004760863198371529,0.00048592362196225555
0.024466561337433967,0.006965716710316983,-4.906865571190806e-05,0.024515629993145875,0.024525467295270977
0.004929193126262277,0.00912006281484623,-6.728699936228504e-05,0.004996480125624562,0.005006317427749664
-0.012780684956218091,0.013479804803234297,-0.00010415539186637043,-0.01267652956435172,-0.012666692262226617
0.002099351508136893,0.017187073659429952,-0.00013550611025118207,0.002234857618388075,0.0022446949205131776
0.0066340970009337585,0.0057066970727697175,-3.8421688462223154e-05,0.006672518689395982,0.006682355991521084
-0.0007630717720803482,-0.0098025870260805,9.273340629722456e-05,-0.0008558051783775728,-0.00084596787625247
0.0038877919162663144,-0.0016610054537223862,2.388368403998872e-05,0.0038639082322263255,0.003873745534351428
0.006224076926034661,-0.02939044252863232,0.00025837915939565487,0.005965697766639006,0.005975535068764109
0.03958764302902429,-0.031883121516435575,0.0002794586332621795,0.03930818439576211,0.039318021697887215
0.027370061247376398,0.006082009597382809,-4.1595539003376556e-05,0.027411656786379773,0.027421494088504878
-0.018661516252568067,0.023336145831710953,-0.00018750606964956502,-0.018474010182918502,-0.018464172880793397
0.007344292812660136,0.010688382331855317,-8.054957767056861e-05,0.0074248423903307045,0.0074346796924558076
0.025582582810955268,-0.020691134941917988,0.00018481299711472232,0.025397769813840544,0.02540760711596565
-0.025769605482704128,0.008114229792425487,-5.8781118334704e-05,-0.025710824364369424,-0.025700987062244322
0.033292050317768274,-0.024974129488995245,0.00022103237075542828,0.033071017947012844,0.033080855249137946
0.004035317218481715,-0.0284510281118181,0.00025043495087704275,0.0037848822676046726,0.0037947195697297753
0.010110481050963127,0.022488442948566112,-0.0001803374246458307,0.010290818475608959,0.01030065577773406
-0.0011811688413327914,0.017865633700204997,-0.00014124438971531439,-0.0010399244516174772,-0.0010300871494923743
0.003174442620516027,0.018303664125949304,-0.00014494861755909183,0.0033193912380751187,0.0033292285402002214
-0.011230421481783992,-0.008163308930517088,7.887076295467045e-05,-0.011309292244738662,-0.01129945494261356
-0.022339354260268784,0.034124984892549115,-0.0002787424671744232,-0.022060611793094362,-0.022050774490969257
-0.02118099649050309,0.0005440035535435594,5.236906828986402e-06,-0.021186233397332076,-0.021176396095206974
0.0009836290703444384,0.009794704112697561,-7.299213976621173e-05,0.00105662121011065,0.0010664585122357527
0.006550895875947482,-0.002973672247100878,3.498432134702598e-05,0.006515911554600456,0.006525748856725559
0.027139591481047276,0.01738025794738407,-0.00013713978356783357,0.02727673126461511,0.02728656856674021
0.034723124445497744,-0.019369883187983272,0.00017363976062721476,0.03454948468487053,0.034559321986995635
-0.028169016552118675,0.020418716445174567,-0.0001628346712016158,-0.02800618188091706,-0.027996344578791958
0.005293042726472352,-0.01264913736003248,0.00011680541222654319,0.005176237314245809,0.0051860746163709115
-0.00827384475636328,0.0045541787147385104,-2.867535500826365e-05,-0.008245169401355017,-0.008235332099229914
-0.009290820586081328,0.01880876515031682,-0.00014922003152583493,-0.009141600554555493,-0.00913176325243039
-0.0073365084350134335,0.012872958939026846,-9.902356719172877e-05,-0.007237484867821705,-0.007227647565696602
0.013174801939439984,-0.02004472508361621,0.00017934659739706575,0.012995455342042918,0.013005292644168021
0.005708797776949881,0.010536553156824224,-7.926562608959732e-05,0.005788063403039478,0.005797900705164581
0.014821861692618787,0.034291437858544604,-0.0002801500856298584,0.015102011778248646,0.015111849080373748
-0.007768800423528566,0.0003892292585989665,6.545763974835558e-06,-0.0077753461875034015,-0.007765508885378298
-0.00933292617742476,-0.02473750308360323,0.00021903132683721946,-0.009551957504261981,-0.009542120202136878
-0.0003793351751582019,-0.027942247001422227,0.0002461324160649598,-0.0006254675912231618,-0.000615630289098059
0.005376346356164907,0.016104667765514558,-0.00012635268661925683,0.005502699042784164,0.005512536344909267
0.017867278298177025,0.01878180753005876,-0.00014899206296088374,0.01801627036113791,0.01802610766326301
-0.016626552498474445,-0.006280017279460592,6.294460586194538e-05,-0.01668949710433639,-0.016679659802211286
-0.009993679734702332,0.006295743615618132,-4.340299221890245e-05,-0.00995027674248343,-0.009940439440358327
0.010665942687147822,0.011735638864999398,-8.940575884350523e-05,0.010755348445991327,0.01076518574811643
-0.0010050753399131196,-0.036695142913972245,0.00032015175090422467,-0.0013252270908173443,-0.0013153897886922414
-0.007860152232880058,0.008624176874533207,-6.309351324925073e-05,-0.007797058719630807,-0.007787221417505704
0.026746158465881464,0.019480539941325148,-0.00015490093116054065,0.026901059397042005,0.026910896699167106
-0.005864272606730836,-0.009550141648312915,9.05985883886954e-05,-0.005954871195119531,-0.005945033892994429
0.004656986344070413,0.004817163683512371,-3.089930153474473e-05,0.004687885645605158,0.00469772294773026
-0.004326309858092348,-0.016616200730203312,0.00015035309688531232,-0.00447666295497766,-0.004466825652852557
0.00496585479051137,-0.016799952076269054,0.00015190700002177076,0.0048139477904896,0.004823785092614702
-0.026991986426369796,-0.00039467858438069214,1.3174922791798198e-05,-0.027005161349161595,-0.02699532404703649
0.022091002794611292,-0.018648495446902502,0.00016753930641303435,0.021923463488198257,0.02193330079032336
0.0084466605169351,-0.004140841830647446,4.4854553677204516e-05,0.008401805963257895,0.008411643265382998
-0.0047422348107523105,-0.02209521492281885,0.0001966866749564061,-0.004938921485708717,-0.004929084183583614
-0.0038984978921200453,-0.002685506857766806,3.2547435240380654e-05,-0.003931045327360426,-0.003921208025235323
-0.009318542030631205,0.029240425313361795,-0.00023743592649960415,-0.009081106104131601,-0.009071268802006498
0.012416185708089111,0.002213653490450218,-8.882577622673947e-06,0.012425068285711785,0.012434905587836888
-0.009290837284086861,0.0433153072475978,-0.00035646092224067864,-0.008934376361846182,-0.00892453905972108
0.00075023970048127,-0.0019086457924624156,2.5977867877662964e-05,0.0007242618326036071,0.0007340991347287097
0.009245999715452813,-0.00024098633145541726,1.1875215992455872e-05,0.009234124499460357,0.00924396180158546
-0.016094102001293242,0.010287014543699957,-7.715538939254172e-05,-0.0160169466119007,-0.0160071093097756
0.005221719222449739,0.0011057487964409862,4.864779830577259e-07,0.005221232744466681,0.005231070046591784
0.020778557093954042,0.002018354924337773,-7.231024799113193e-06,0.020785788118753156,0.020795625420878257
-0.00030650894728967426,-0.02114181011508598,0.00018862415594486848,-0.0004951331032345427,-0.00048529580110944
-0.01962592103705485,0.01688335256005491,-0.0001329376764463019,-0.01949298336060855,-0.019483146058483444
0.01751640531654508,-0.014914054108935981,0.00013595880247533752,0.017380446514069742,0.017390283816194847
0.024592778413104588,-0.00868600976072853,8.329101062569648e-05,0.02450948740247889,0.024519324704603995
-0.002400294829271399,-0.01134836742295231,0.00010580538132436646,-0.0025061002105957655,-0.0024962629084706624
-0.011127787425105784,0.0032431003656709922,-1.7588150465936743e-05,-0.011110199274639847,-0.011100361972514745
0.013381952932345342,0.0032161498496299235,-1.736024197817847e-05,0.01339931317432352,0.013409150476448623
-0.011104409822135786,-0.011732825699560245,0.00010905657340893894,-0.011213466395544724,-0.011203629093419622
-0.016388494780695484,0.029825423296426123,-0.00024238299339281912,-0.016146111787302665,-0.016136274485177564
-0.0006171076167181822,0.0019495059855065833,-6.6488000465753515e-06,-0.0006104588166716068,-0.0006006215145465041
0.01142324602831013,0.008265549753183832,-6.00607637178025e-05,0.011483306792027933,0.011493144094153035
0.006715544321579392,0.009035052675189448,-6.656810654614108e-05,0.006782112428125533,0.006791949730250635
0.0003638883494307965,7.9107947907886e-05,9.168321510784504e-06,0.000354720027920012,0.0003645573300451147
0.008123112784589104,-0.0124780022540123,0.0001153581990022778,0.008007754585586826,0.00801759188771193
-0.01268782596538165,0.01070708742195392,-8.070775827057117e-05,-0.012607118207111079,-0.012597280904985976
0.001888064811980561,-0.0042913365279230176,4.612722017529486e-05,0.0018419375918052661,0.0018517748939303688
0.007902684178561215,0.015473984880403524,-0.0001210192828958682,0.008023703461457083,0.008033540763582186
0.01809404333178599,0.00018792399994027598,8.248112716832812e-06,0.01808579521906916,0.018095632521194262
0.005331762859151823,0.002943716919978634,-1.5056398262616013e-05,0.005346819257414439,0.005356656559539542
-0.019740665764731657,-0.002536961462655807,3.12912531208393e-05,-0.019771957017852497,-0.019762119715727396
-0.02242266868053322,0.0022615979258335805,-9.288022317981276e-06,-0.02241338065821524,-0.022403543356090135
0.002951687262365832,0.00888576974833133,-6.530568744973059e-05,0.0030169929498155626,0.0030268302519406653
-0.011158750000146211,0.0003095972599744812,7.219176252211588e-06,-0.011165969176398423,-0.01115613187427332
0.015624931629097727,0.002336608362904613,-9.92235211162586e-06,0.015634853981209354,0.015644691283334455
0.007631258022247067,-0.004947922948427275,5.1679678538307665e-05,0.007579578343708759,0.0075894156458338625
0.019024604625271557,0.003552954600872571,-2.0208449463650767e-05,0.01904481307473521,0.01905465037686031
-0.010642776139714205,0.011107929092462498,-8.409749740643401e-05,-0.010558678642307771,-0.010548841340182668
-0.007211474536436335,0.004938656879440728,-3.1926715277574616e-05,-0.0071795478211587604,-0.007169710519033658
-0.02039950870764662,0.0006694597815233294,4.1759794925615406e-06,-0.02040368468713918,-0.020393847385014076
-0.021380501718829548,0.00047134296924533636,5.851364966329877e-06,-0.021386353083795877,-0.021376515781670775
-0.007514016670060908,-0.00102581731454221,1.851218139336241e-05,-0.00753252885145427,-0.007522691549329168
-0.011515504821825395,0.008679141952454561,-6.35583283856096e-05,-0.011451946493439785,-0.011442109191314684
-0.0023813930077998258,-0.005753890884025226,5.849538971444521e-05,-0.002439888397514271,-0.0024300510953891683
-0.009999982772334937,-0.0015928775670267514,2.330755690359889e-05,-0.010023290329238535,-0.010013453027113433
0.01140437847439335,-0.0025221231757218687,3.1165772349677666e-05,0.011373212702043674,0.011383050004168775
0.028994832216002298,-0.0004569466961219515,1.3701496426265451e-05,0.02898113071957603,0.028990968021701136
-0.00469629355110146,0.008899605562620927,-6.542269075708253e-05,-0.004630870860344378,-0.004621033558219275
-0.00849325102195242,0.0010951470667548424,5.761320800965014e-07,-0.008493827154032517,-0.008483989851907413
0.005710669497514198,0.014605356896842503,-0.0001136736836555332,0.005824343181169731,0.005834180483294834
0.016403799534654873,-0.0004238741534883239,1.3421816691507684e-05,0.016390377717963363,0.01640021502008847
-0.00931102213045265,0.00202338180532724,-7.273534888445227e-06,-0.009303748595564206,-0.009293911293439103
0.0009398711332646581,0.0021602108339675574,-8.430636925056602e-06,0.0009483017701897147,0.0009581390723148174
0.003630708180919484,0.0014741105602813498,-2.628593075948914e-06,0.003633336773995433,0.0036431740761205355
0.011975265021871406,-0.006886302644093845,6.807169064180544e-05,0.011907193331229601,0.011917030633354704
0.004129394998432456,0.006800039312997219,-4.766759589467361e-05,0.00417706259432713,0.004186899896452233
0.00441937787559854,-0.0009395233752043097,1.7782432056198138e-05,0.004401595443542342,0.004411432745667445
-0.027132744771838024,-0.0053832058728249255,5.536067198924173e-05,-0.027188105443827267,-0.027178268141702162
0.019472328169394704,0.01102570580548079,-8.340217175975773e-05,0.019555730341154463,0.019565567643279564
-0.009303701384643426,0.0023489303072772305,-1.002655329663936e-05,-0.009293674831346787,-0.009283837529221683
0.005659531102332194,0.000719922777789872,3.7492364517480248e-06,0.005655781865880446,0.005665619168005548
0.0037105420939573808,-0.0033401068031253534,3.808309486953107e-05,0.0036724589990878498,0.0036822963012129524
0.018176222095770855,0.004272002277298181,-2.62891147952732e-05,0.018202511210566128,0.018212348512691233
-0.0007261198502884758,0.0016722378083675604,-4.304066800690469e-06,-0.0007218157834877854,-0.0007119784813626826
-0.003815159176341454,0.0013545591394890089,-1.6176000589463742e-06,-0.0038135415762825075,-0.003803704274157405
-0.0024316664846278924,0.0033563334079245166,-1.8545711775150402e-05,-0.002413120772852742,-0.002403283470727639
0.0067032669941742284,-0.0047369876733168725,4.989589304447782e-05,0.00665337110112975,0.0066632084032548534
-0.014225218150107355,0.006158039788692005,-4.223849240355805e-05,-0.014182979657703796,-0.014173142355578695
-0.019772769596733575,-0.003245756135652589,3.7285213377765435e-05,-0.01981005481011134,-0.01980021750798624
0.010774912493228817,-0.003869693865664492,4.25615763344394e-05,0.010732350916894376,0.01074218821901948
-0.005268112216641696,-0.015370160722531612,0.0001398158925734537,-0.00540792810921515,-0.005398090807090047
-0.010778778208261564,0.0069006220464606915,-4.851817918752489e-05,-0.010730260029074038,-0.010720422726948935
-0.0029602526777452454,0.009817931917032618,-7.318856694229552e-05,-0.0028870641108029497,-0.002877226808677847
-0.009665185007396326,0.0036312500921620305,-2.0870559494897652e-05,-0.009644314447901429,-0.009634477145776326
-0.0068253078165280145,0.00016046065922270536,8.480357934037326e-06,-0.006833788174462052,-0.006823950872336949
0.006229937313521949,0.018131549330308916,-0.00014349311953688513,0.006373430433058835,0.006383267735183937
0.023808074487279063,-0.0011962619960680376,1.9953556005774154e-05,0.023788120931273287,0.023797958233398392
0.008728141001096423,0.005967198922915307,-4.062463636253205e-05,0.008768765637458955,0.008778602939584058
-0.012978988515828127,0.0011193985360786751,3.710482260030084e-07,-0.012979359564054131,-0.012969522261929028
0.0035064997651046426,0.00397384638616094,-2.3767743473041023e-05,0.0035302675085776836,0.0035401048107027862
-0.0006863646701790183,-0.003000518154814724,3.521134520884136e-05,-0.0007215760153878596,-0.000711738713262757
0.007805182938739108,-0.0018711970276237277,2.5661180384562848e-05,0.007779521758354545,0.007789359060479648
-0.005885955201176851,-0.0072065416718331,7.077980919589971e-05,-0.005956735010372751,-0.0059468977082476485
-0.006544125609932561,0.003108858515779689,-1.6452927045502868e-05,-0.006527672682887058,-0.006517835380761955
-0.004956055296599038,0.013885824750712539,-0.00010758892137981087,-0.004848466375219227,-0.004838629073094124
0.0003152458496737953,-0.0028167751776319028,3.3657512844291244e-05,0.00028158833682950406,0.0002914256389546068
-0.005420423645136063,-0.00494150905632218,5.162543911491075e-05,-0.005472049084250974,-0.005462211782125872
-0.0002534670564442454,-0.001607929836799582,2.343484723214131e-05,-0.0002769019036763867,-0.000267064601551284
-0.02193203075623862,0.0036984360198231148,-2.143872090407219e-05,-0.021910592035334547,-0.021900754733209443
0.0044069888812579006,0.007504645877610239,-5.3626139187900176e-05,0.004460615020445801,0.004470452322570904
0.00464573165519977,-0.003988635996082901,4.35674168546394e-05,0.00460216423834513,0.004612001540470233
0.006101494469546331,-0.010202524371008104,9.611549795519544e-05,0.006005378971591136,0.006015216273716238
-0.008298762512447544,-0.0006290422223540482,1.5156831495685e-05,-0.00831391934394323,-0.008304082041818126
-0.012809746177137926,-0.011358438273891824,0.00010589054601674437,-0.012915636723154671,-0.012905799421029568
0.0035211201916898194,-0.017081454337735447,0.000154287539029394,0.0033668326526604254,0.003376669954785528
-0.0024691426877070377,0.007448895819775148,-5.3154685826700355e-05,-0.0024159880018803375,-0.002406150699755235
0.018108381555943964,0.013779387810288313,-0.00010668883167107441,0.018215070387615037,0.018224907689740142
-0.009213055172834994,-0.012475001040294531,0.00011533281907712855,-0.009328387991912122,-0.00931855068978702
-0.0023246966052002938,-0.000503600390907244,1.409602590431512e-05,-0.002338792631104609,-0.002328955328979506
0.0025889943266561577,0.015486673802446171,-0.00012112658744727701,0.0027101209141034348,0.0027199582162285374
0.02420916756236524,-0.004055288780130728,4.413106970618668e-05,0.024165036492659053,0.024174873794784158
0.00913964449136917,-0.005934396967956612,6.002184911719952e-05,0.009079622642251971,0.009089459944377072
-0.004996872115075823,0.0011692656800530443,-5.065595786878518e-08,-0.004996821459117955,-0.004986984156992852
0.0335844216674801,-0.008407570124922548,8.093637087661695e-05,0.033503485296603484,0.033513322598728586
-0.011235922516120045,0.003679773444691614,-2.1280899834174532e-05,-0.01121464161628587,-0.011204804314160767
-0.03501232336962412,0.013644592157896263,-0.00010554892499002061,-0.0349067744446341,-0.034896937142509
0.01113941376893246,0.006680165568110796,-4.6653877126641354e-05,0.011186067646059101,0.011195904948184204
0.023607176241532635,0.002414323726029899,-1.0579556257864779e-05,0.0236177557977905,0.023627593099915602
0.0015374918928885428,-0.0038835019016946193,4.267834473344678e-05,0.001494813548155096,0.0015046508502801989
-0.004605512044347448,0.005658384242170911,-3.801312841297154e-05,-0.004567498915934477,-0.004557661613809374
-0.015299149000059797,-0.002496683664631072,3.095064175651284e-05,-0.01533009964181631,-0.015320262339691207
-0.03708808492612636,-0.0076588713308223255,7.460495927433812e-05,-0.0371626898854007,-0.0371528525832756
0.013662982414481384,-0.016147208958519288,0.00014638704275511688,0.013516595371726267,0.01352643267385137
0.009306833021420102,0.00035058102206497743,6.872594864810464e-06,0.009299960426555292,0.009309797728680394
0.0034975739375036063,-0.004278673417828949,4.602013390401687e-05,0.0034515538035995896,0.0034613911057246923
0.0053865677810736035,-0.006702266480503982,6.651537893064252e-05,0.005320052402142961,0.005329889704268064
-0.01285846342837782,0.002517410777005402,-1.1451317446388401e-05,-0.012847012110931432,-0.012837174808806329
-0.019219755459665144,-0.0033873413051768164,3.8482535975451245e-05,-0.019258237995640595,-0.019248400693515494
0.013020883294910135,-0.01111286391927968,0.00010381383328491469,0.01291706946162522,0.012926906763750324
-0.01131109192457902,-0.005745837446504476,5.842728538709902e-05,-0.011369519209966119,-0.011359681907841016
0.03035621509075548,-0.004403818556987793,4.707843050110347e-05,0.030309136660254376,0.030318973962379477
0.004668497846516573,-0.015051375861739213,0.0001371200712603214,0.004531377775256251,0.004541215077381354
0.000941876889719806,-0.007387777046316768,7.231243588341597e-05,0.00086956445383639,0.0008794017559614928
0.013174406755029677,0.016035901237667627,-0.00012577115877963777,0.013300177913809315,0.013310015215934418
-0.01058820625489898,0.0004863370186602989,5.7245669813736895e-06,-0.010593930821880353,-0.01058409351975525
0.022028867940428798,0.0016937032123527374,-4.485590143469032e-06,0.022033353530572265,0.02204319083269737
0.004715055698062631,0.001380031526917458,-1.833008672627987e-06,0.0047168887067352595,0.004726726008860362
0.011213925969117522,-0.002165632329979128,2.8151088347742915e-05,0.011185774880769779,0.011195612182894882
-0.0182014317530802,0.011078977592776207,-8.385266749290724e-05,-0.018117579085587292,-0.01810774178346219
0.013812060250200986,-0.014334892170861036,0.00013106108841032043,0.013680999161790665,0.013690836463915768
-0.01059638168501753,-0.0022766655169013106,2.9090046462083083e-05,-0.010625471731479614,-0.01061563442935451
0.018971815363984845,-0.024642584749729912,0.00021822864484401987,0.018753586719140826,0.018763424021265927
-0.013633590873136092,0.00010955419561042845,8.910851180300803e-06,-0.013642501724316393,-0.01363266442219129
0.011812716323154948,0.005726850663809513,-3.859211838830617e-05,0.011851308441543255,0.011861145743668358
0.0001805536074335201,0.023049400920118535,-0.00018508119588930675,0.00036563480332282687,0.00037547210544792954
0.007761715016192383,-0.00010646449242102118,1.0737624828781247e-05,0.007750977391363602,0.007760814693488704
0.0015522758589274765,0.008114163624478143,-5.8780558781900114e-05,0.0016110564177093767,0.0016208937198344793
-0.010432145516548141,-0.012620113782869202,0.0001165599727859574,-0.0105487054893341,-0.010538868187208996
-0.008433812878302804,0.011650737147309576,-8.868778290355362e-05,-0.008345125095399251,-0.008335287793274148
0.0036452841208003406,-0.007023250955987548,6.922980140366173e-05,0.0035760543193966788,0.0035858916215217814
-0.012409196006390788,0.010814652782245693,-8.161739052258127e-05,-0.012327578615868206,-0.012317741313743105
0.013239325540969737,0.010337815429059649,-7.758498981063635e-05,0.013316910530780374,0.013326747832905477
0.005020880915610482,0.0014447466011910937,-2.3802751772987358e-06,0.005023261190787781,0.005033098492912883
0.01288063021718222,0.009815695418065262,-7.316965386854412e-05,0.012953799871050765,0.012963637173175868
0.006358471391695764,-0.0016863570122068738,2.409807085720997e-05,0.0063343733208385536,0.006344210622963657
0.009152683291028474,-0.022261677039013494,0.0001980943707909924,0.008954588920237481,0.008964426222362584
0.007606738420474324,0.007174604262178752,-5.0835124524000456e-05,0.007657573544998324,0.007667410847123427
-0.006387845957556038,-0.015954853497705423,0.0001447603784597346,-0.006532606336015772,-0.006522769033890669
-0.0005844668921745066,0.004772721486371312,-3.05234737054134e-05,-0.0005539434184690932,-0.0005441061163439906
0.011988299364495969,0.008984905521485453,-6.614403444493742e-05,0.012054443398940906,0.01206428070106601
-0.006645464841960602,-0.002109799583246086,2.767893572343221e-05,-0.006673143777684035,-0.0066633064755589316
-0.006980851396464316,0.02492023877666627,-0.00020090203679925376,-0.006779949359665062,-0.00677011205753996
-0.006151115648125316,0.0024593113157624913,-1.0959996228966654e-05,-0.006140155651896349,-0.006130318349771247
-0.01385208418732109,0.0062321108631679945,-4.286487842691761e-05,-0.013809219308894172,-0.01379938200676907
0.008308424552787796,-0.0046870230309741245,4.9473364360412324e-05,0.008258951188427384,0.008268788490552487
0.0009485297393301284,-0.00943264946713962,8.960500944223582e-05,0.0008589247298878926,0.0008687620320129953
0.008765218546454623,-0.0016388318166757898,2.3696171486251724e-05,0.00874152237496837,0.008751359677093474
-0.017201970213874263,-0.008125926498228409,7.855463640634552e-05,-0.01728052485028061,-0.017270687548155507
0.004181582782634807,-1.4923577632885987e-05,9.9635041616452e-06,0.004171619278473162,0.004181456580598265
-0.01754908302594682,-0.004987097282612596,5.201095840135402e-05,-0.017601093984348174,-0.017591256682223073
0.013018477779820792,0.01649736234989274,-0.00012967352948327145,0.013148151309304064,0.013157988611429167
-0.01075913389724581,-0.002314313728559836,2.9408420587937396e-05,-0.010788542317833747,-0.010778705015708644
0.006827847429619949,0.007409672577889825,-5.282299237305966e-05,0.0068806704219930084,0.006890507724118111
0.0021604331671933874,0.006680490923747229,-4.665662851407193e-05,0.0022070897957074593,0.002216927097832562
-0.004730736480570985,0.002717099891568653,-1.313999917895883e-05,-0.004717596481392026,-0.004707759179266924
0.00457270171100177,-0.010061659913606968,9.492427009832397e-05,0.004477777440903446,0.004487614743028548
0.0071275392094052314,-0.00890905606969361,8.517721372840635e-05,0.007042361995676825,0.0070521992978019275
-0.004757652165637505,-0.009040932945028057,8.629243761435938e-05,-0.0048439446032518645,-0.004834107301126761
0.004481556788496821,-0.000313861457302278,1.2491488411939134e-05,0.004469065300084882,0.004478902602209985
-0.011719131615115841,0.016540974699349675,-0.00013004233966104945,-0.011589089275454791,-0.011579251973329688
0.021428939642573974,0.01908056557933535,-0.0001515185264657933,0.02158045816903977,0.02159029547116487
-0.008250302951349209,-0.0004833595887074882,1.3924858472369436e-05,-0.008264227809821579,-0.008254390507696475
0.0012478405049027863,-0.0043168283608459035,4.634279323084557e-05,0.0012014977116719407,0.0012113350137970434
-0.014540108824141695,-0.0028999798130677767,3.436113731692737e-05,-0.014574469961458622,-0.01456463265933352
-0.0012044840900355958,-0.0075036694675360005,7.329248637382108e-05,-0.0012777765764094167,-0.001267939274284314
0.0015677406088518975,0.01904028588598905,-0.00015117789907357813,0.0017189185079254756,0.0017287558100505783
0.008367945244362573,0.0023292692665812798,-9.860288649018525e-06,0.008377805533011592,0.008387642835136695
-0.0025671204524253532,0.005106758007594747,-3.3348271504908474e-05,-0.002533772180920445,-0.002523934878795342
0.002573727520983393,0.0006208264404641284,4.587249955752097e-06,0.002569140271027641,0.0025789775731527437
-0.01976115667997902,0.0004136855394443195,6.338948121099683e-06,-0.01976749562810012,-0.019757658325975015
0.01589619767468209,0.002188441817939202,-8.66937375870761e-06,0.015904867048440796,0.015914704350565897
0.005395692502473404,-0.0012519007957618733,2.0424068506521232e-05,0.005375268433966882,0.005385105736091985
0.006261153212295811,-0.00012814640056846294,1.0920979050647244e-05,0.006250232233245164,0.006260069535370266
0.006814801251446845,0.0011396405267545262,1.9987074364533307e-07,0.0068146013807032,0.006824438682828302
0.007533858806578975,0.007100510313353237,-5.02085450624744e-05,0.007584067351641449,0.007593904653766552
0.021731495498153564,0.0018721339981915275,-5.99449967633549e-06,0.021737489997829897,0.021747327299955002
0.010005783116027622,-2.1174829462955458e-05,1.001636820881284e-05,0.00999576674781881,0.010005604049943911
-0.006170458761321496,-0.003497536135912971,3.9414404485634323e-05,-0.00620987316580713,-0.006200035863682027
-0.007177002303246249,0.0002264032488046297,7.922710880170936e-06,-0.0071849250141264205,-0.007175087712001317
-0.02122781599283896,-0.008072242646582573,7.810065602886414e-05,-0.021305916648867825,-0.021296079346742724
-0.02643612120407146,0.006454730908207917,-4.4747476805828487e-05,-0.026391373727265632,-0.02638153642514053
0.010656876015672667,-0.0004890148137838279,1.3972682187251824e-05,0.010642903333485415,0.010652740635610518
0.013523245542569562,-0.0008081822874276279,1.667173908653123e-05,0.013506573803483031,0.013516411105608134
0.006877015760150096,0.0008443492265819419,2.6970174983847735e-06,0.006874318742651711,0.006884156044776814
0.009223640034192071,-0.00780580496271055,7.584751143153785e-05,0.009147792522760533,0.009157629824885636
0.003007869357652293,0.0050732955705157234,-3.306529460681253e-05,0.0030409346522591056,0.0030507719543842082
0.038062274602322255,-0.0011659590635981765,1.969729762826023e-05,0.03804257730469399,0.038052414606819095
-0.004611121283637165,-0.0010676612969652277,1.886603728025086e-05,-0.004629987320917416,-0.004620150018792313
0.008762604767381665,0.020435540463669577,-0.00016297694441847634,0.008925581711800142,0.008935419013925245
0.002545171840255822,0.0040499740579702515,-2.4411521222312287e-05,0.0025695833614781346,0.0025794206636032373
0.0038631176369845477,-0.006147829935223559,6.182675647902685e-05,0.0038012908805055206,0.0038111281826306237
-0.006322142261779851,0.0031349558295050706,-1.6673620382010467e-05,-0.00630546864139784,-0.006295631339272738
0.017427309179142814,0.002092692232889659,-7.859662245248293e-06,0.01743516884138806,0.017445006143513166
-0.023382290345144163,0.01630974737217783,-0.00012808695333806338,-0.0232542033918061,-0.023244366089680998
0.007795172835955766,0.003958951318527193,-2.3641782532838935e-05,0.007818814618488604,0.007828651920613708
0.001546954549147772,-0.003124690820504483,3.626141803175657e-05,0.0015106931311160154,0.0015205304332411183
-0.0009929197258548017,-0.0012797755200721905,2.0659792611193746e-05,-0.0010135795184659955,-0.0010037422163408929
-0.0016013934281886577,0.001185553958514829,-1.8839866033704413e-07,-0.0016012050295283206,-0.001591367727403218
-0.005032885704336576,-0.0005407337436069692,1.4410046097705574e-05,-0.005047295750434282,-0.005037458448309179
-0.015675352506976048,-7.531901909729743e-05,1.0474241459241729e-05,-0.01568582674843529,-0.015675989446310188
0.007454256162045869,-0.002232653981520283,2.87178605470778e-05,0.007425538301498791,0.007435375603623894
-0.0067265043838012906,-0.0105018557847808,9.864681014779033e-05,-0.0068251511939490805,-0.006815313891823978
-0.03611734844516101,-0.0057367349435899495,5.83503095818527e-05,-0.036175698754742865,-0.03616586145261776
-0.004391145390777007,0.009648981834660786,-7.175983148797904e-05,-0.004319385559289028,-0.004309548257163925
0.02352258427638021,-0.004477753072888002,4.770366170952557e-05,0.023474880614670682,0.023484717916795787
-0.004136771082995927,0.002651506710448004,-1.2585306916529376e-05,-0.004124185776079398,-0.0041143484739542945
0.004961659354778547,0.0008722869484341089,2.4607606516128647e-06,0.004959198594126934,0.004969035896252037
0.006946454192044316,0.0036244096381636837,-2.081271282791853e-05,0.006967266904872234,0.006977104206997337
-0.012086761087306108,0.007174435557619541,-5.0833697864825944e-05,-0.012035927389441283,-0.01202609008731618
-0.01615874847631149,-0.00032158936312698394,1.2556839862997184e-05,-0.016171305316174486,-0.016161468014049385
-0.004164773079443851,-0.0034567355331607263,3.906937199502375e-05,-0.004203842451438874,-0.004194005149313772
0.005065703371491814,-0.00989094181235195,9.348058329727332e-05,0.004972222788194541,0.004982060090319643
0.023970017189947734,-0.006188030354815854,6.216671348847953e-05,0.023907850476459255,0.023917687778584357
0.013507329406267976,0.00019538952303133073,8.184980119467552e-06,0.013499144426148508,0.013508981728273611
-0.003218946990184879,-0.0029661372528556607,3.492060126311078e-05,-0.0032538675914479897,-0.003244030289322887
0.013540328198839768,0.008077922524027725,-5.847408396762332e-05,0.013598802282807392,0.013608639584932494
-0.01738395345088317,0.010269933278491461,-7.701094075501901e-05,-0.017306942510128154,-0.01729710520800305
-0.006314355654378767,0.004117058019306619,-2.4978820347780154e-05,-0.006289376834030987,-0.006279539531905885
-0.008472676532656931,-0.0024437290975140025,3.050282861285525e-05,-0.008503179361269786,-0.008493342059144683
0.012355698941972193,-0.016571304555192734,0.0001499734299677216,0.01220572551200447,0.012215562814129574
0.008041453013673872,0.00043958226653084687,6.119951056287074e-06,0.008035333062617585,0.008045170364742687
0.0019236434622993404,-0.01444390628760639,0.00013198297214916523,0.001791660490150175,0.001801497792275278
0.03309054461703109,-0.0030853828766044256,3.5929008290974706e-05,0.033054615608740116,0.03306445291086522
0.013391682875741662,0.002995542646406335,-1.54946653042976e-05,0.013407177541045959,0.013417014843171062
-0.00620289497237736,-0.0007289817322603254,1.6001975333945225e-05,-0.006218896947711305,-0.006209059645586202
-0.0016281563386192355,0.00015587969925845435,8.519097068246952e-06,-0.0016366754356874824,-0.0016268381335623797
-0.0046208746782289145,0.010926475234507071,-8.256302310169317e-05,-0.004538311655127221,-0.004528474353002119
0.008192224080032284,-0.009379454163327194,8.915516049577197e-05,0.008103068919536513,0.008112906221661616
-0.006175428967481689,0.002163809008205897,-8.461065078940596e-06,-0.006166967902402748,-0.0061571306002776455
0.017387999153306133,0.007853184882181896,-5.65735780174815e-05,0.017444572731323615,0.017454410033448716
-0.007768574907652259,-0.023705000038029778,0.00021029990932506983,-0.00797887481697733,-0.007969037514852227
-0.0043737192082154985,-0.01220484261628385,0.00011304820984079309,-0.004486767418056292,-0.004476930115931189
0.00010850961577246743,0.001698692425988746,-4.527781696801551e-06,0.00011303739746926897,0.00012287469959437167
0.013231358462288734,0.00013048788935265954,8.733824273776398e-06,0.013222624638014957,0.01323246194014006
-0.012309314894846768,-0.0039854205221913075,4.35402250268116e-05,-0.01235285511987358,-0.012343017817748476
0.0018964967519263798,-0.013852035718884714,0.00012697778686586938,0.0017695189650605103,0.0017793562671856132
0.003244968452412067,-0.0015935449138314572,2.3313200357729382e-05,0.003221655252054338,0.0032314925541794405
-0.0223719151076619,0.00483994963594836,-3.1091992166490124e-05,-0.022340823115495408,-0.022330985813370306
-0.0002757688476490161,0.019862053761098286,-0.00015812722328759597,-0.00011764162436142013,-0.00010780432223631744
0.01820187197913259,0.0006633863793055195,4.227339544921931e-06,0.018197644639587666,0.01820748194171277
0.003250345409902211,0.002320181125065268,-9.783434291710818e-06,0.003260128844193922,0.0032699661463190246
0.0021597736063738715,0.013026314842639719,-0.00010032042963502866,0.0022600940360089,0.0022699313381340028
0.01077590348569002,-0.0020295818770267315,2.700057037829259e-05,0.010748902915311727,0.01075874021743683
-0.011194082583111276,-0.0052265872985560735,5.403621859613871e-05,-0.011248118801707414,-0.011238281499582312
-0.04258754936228748,0.007856028682432292,-5.659762676718139e-05,-0.0425309517355203,-0.042521114433395193
0.01379498472563867,0.004269642628790704,-2.626916030081526e-05,0.013821253885939485,0.013831091188064588
-0.03249092539517495,0.00016250753698754394,8.463048402179029e-06,-0.03249938844357713,-0.03248955114145203
0.018369672412326343,-0.004745224843287543,4.9965551115164206e-05,0.01831970686121118,0.01832954416333628
-0.02790298411901082,-0.0017098123935156417,2.429642255020646e-05,-0.027927280541561027,-0.027917443239435926
0.01182943205254694,0.0015848622233496368,-3.5651704686839183e-06,0.011832997223015623,0.011842834525140726
-0.02057420279459543,0.0033065906083264984,-1.812505911618196e-05,-0.02055607773547925,-0.020546240433354145
-0.014628437552245632,0.0029209195962771606,-1.4863611469152721e-05,-0.014613573940776479,-0.014603736638651377
0.0053444270648690395,0.0003385605486661003,6.974246644327484e-06,0.005337452818224712,0.0053472901203498145
-0.016538728978044204,0.0065488820784729285,-4.55436712387318e-05,-0.01649318530680547,-0.01648334800468037
-0.0006006143610181036,0.0004482397633895907,6.046738468674964e-06,-0.0006066610994867786,-0.0005968237973616758
-0.04248796903125929,-0.0063214251654488685,6.329477387588894e-05,-0.04255126380513518,-0.04254142650301007
0.0034519742998142533,-0.004135401260425775,4.4808545202640455e-05,0.003407165754611613,0.0034170030567367156
0.001688733657336794,0.011870590853387819,-9.054698758831696e-05,0.001779280644925111,0.0017891179470502136
-0.025913145425840667,0.011486656421599406,-8.730022542562261e-05,-0.025825845200415046,-0.02581600789828994
0.023397420653381795,-0.007589201039747917,7.401578871239969e-05,0.023323404864669394,0.0233332421667945
0.01033504582534972,0.00548810949285139,-3.6573190841397966e-05,0.010371619016191118,0.010381456318316221
-0.010539313791976035,-0.009378687628036508,8.914867824887743e-05,-0.010628462470224913,-0.01061862516809981
0.014411058606573102,-0.002440296594621194,3.0473801467611215e-05,0.014380584805105491,0.014390422107230592
0.0018529202166341907,-0.00478746019469678,5.032271663492457e-05,0.0018025974999992661,0.0018124348021243688
0.0027743574721914577,-0.001218442012279497,2.014112250526175e-05,0.002754216349686196,0.0027640536518112988
0.01875194076981601,-0.011049941573072375,0.00010328172708151373,0.018648659042734498,0.0186584963448596
-0.0035606527667720878,0.016941941334216226,-0.00013343313556472356,-0.003427219631207364,-0.0034173823290822615
-0.02277266416211876,0.025403420320955883,-0.00020498808750432908,-0.02256767607461443,-0.02255783877248933
-0.002788972770721987,-0.0020856174946130013,2.747443859087993e-05,-0.0028164472093128667,-0.002806609907187764
-0.025792415035265193,0.004865096315322948,-3.130464641250423e-05,-0.02576111038885269,-0.025751273086727585
-0.002232845102789649,-0.0031231161538831653,3.624810177881948e-05,-0.0022690932045684683,-0.0022592559024433656
-0.001278801619221892,-0.003242371304872038,3.725658937430156e-05,-0.0013160582085961936,-0.001306220906471091
0.012163926725330843,0.002655865938542279,-1.262217096326027e-05,0.012176548896294102,0.012186386198419205
-0.041745780111903885,0.007597415119266371,-5.4410647267230166e-05,-0.041691369464636654,-0.04168153216251155
-0.045148516995483834,-4.7513986152325494e-05,1.0239106703346857e-05,-0.045158756102187184,-0.045148918800062075
0.018664486739140562,-0.0009306715612543703,1.7707576215657865e-05,0.018646779162924905,0.018656616465050006
-0.03929156288167035,0.0011286697641588184,2.926455873230074e-07,-0.039291855527257676,-0.03928201822513257
0.09769021784894116,0.00019699191031485874,8.171429445260223e-06,0.0976820464194959,0.097691883721621
-0.05180182156704405,0.005642922184040833,-3.788237268715587e-05,-0.051763939194356894,-0.05175410189223179
0.020699037141651333,0.0034032703971196288,-1.8942636947606586e-05,0.02071797977859894,0.02072781708072404
0.01496013178460176,0.004428106846314561,-2.7609221475325824e-05,0.014987741006077086,0.014997578308202189
-0.002423888325958301,0.001507477027169024,-2.9107583969623662e-06,-0.0024209775675613386,-0.002411140265436236
-0.009718923465254603,6.614683421224399e-06,9.781364699146413e-06,-0.00972870482995375,-0.009718867527828646
-0.009946924356045606,0.005445481690718124,-3.6212706540991733e-05,-0.009910711649504614,-0.009900874347379511
-0.01607506496227451,-0.0018496216125600817,2.5478726727185024e-05,-0.016100543689001694,-0.016090706386876593
0.015997319064962934,0.005105995170664235,-3.334182053339556e-05,0.016030660885496328,0.016040498187621433
0.020435467176127986,-0.0038996213232838084,4.2814659488694205e-05,0.02039265251663929,0.020402489818764396
0.03742617633820622,-0.0025633010773032927,3.1513995488120744e-05,0.0373946623427181,0.0374044996448432
-0.002531643124693339,0.010052705569688847,-7.517394295739039e-05,-0.0024564691817359485,-0.002446631879610846
-6.347743295564978e-05,-0.011538744820964397,0.00010741531802532504,-0.00017089275098097482,-0.00016105544885587213
0.012120057546036511,0.010416510240551347,-7.825047671464087e-05,0.012198308022751151,0.012208145324876254
-0.006269556676566257,0.0005491705981217621,5.193211438731045e-06,-0.006274749888004988,-0.0062649125858798855
-0.003154586090314604,-0.0018053993582290984,2.5104758856051215e-05,-0.003179690849170655,-0.0031698535470455523
0.03791139049878445,0.005657940611518475,-3.8009376826509674e-05,0.03794939987561096,0.03795923717773606
-0.0023781667843130183,-0.000606117484177382,1.4962967214862452e-05,-0.0023931297515278806,-0.002383292449402778
-0.004767788473645451,0.001595272232703504,-3.6532032724259306e-06,-0.004764135270373025,-0.004754297968247923
0.014801691146572926,0.000592263093356804,4.8287974361277926e-06,0.014796862349136799,0.014806699651261902
0.014343612021548102,0.0006906716689645265,3.996600026066167e-06,0.014339615421522036,0.014349452723647139
-0.013126450498215148,-0.0010450813177572682,1.8675088472181383e-05,-0.01314512558668733,-0.013135288284562226
0.033857281435617725,0.007336475471722448,-5.220399710968633e-05,0.03390948543272741,0.033919322734852514
-0.0003509075242671411,-0.012404137955230099,0.000114733561588689,-0.00046564108585583013,-0.0004558037837307274
-0.011349025722427575,-0.006303057332801343,6.313944531165235e-05,-0.011412165167739227,-0.011402327865614124
-0.0013017372560610863,0.008772467921830174,-6.4347544462829e-05,-0.0012373897115982573,-0.0012275524094731546
0.01309400805724259,-0.018309580659152336,0.00016467325529040085,0.01292933480195219,0.012939172104077292
-0.0005263920526512589,0.006109463971145868,-4.182770839104818e-05,-0.0004845643442602107,-0.000474727042135108
-0.001170301789648831,0.012725994077109837,-9.778075093611169e-05,-0.0010725210387127193,-0.0010626837365876167
-0.0328060618602225,-0.0008640799292052304,1.7144440499275013e-05,-0.032823206300721774,-0.03281336899859667
-0.008479672180956688,0.002323855425648391,-9.814506212122021e-06,-0.008469857674744567,-0.008460020372619463
0.0,0.00461072337316093,-2.9153527952047874e-05,2.9153527952047874e-05,3.8990830077150575e-05
0.026267463395394985,0.00956601649469957,-7.105823063038886e-05,0.026338521626025374,0.026348358928150475
-0.0020833243453309835,0.001084512714484509,6.660620517722611e-07,-0.002083990407382756,-0.0020741531052576533
0.015806818171475445,0.0018164914425815581,-5.523955413481707e-06,0.015812342126888927,0.01582217942901403
0.002231362611824439,0.004481139122655131,-2.8057691771209583e-05,0.0022594203035956485,0.002269257605720751
-0.002343620439874683,0.0032490857396794137,-1.7638766103012052e-05,-0.002325981673771671,-0.002316144371646568
0.012156491302902417,-0.0024032529493148713,3.016053988961573e-05,0.012126330763012802,0.012136168065137903
0.005221940783328716,0.00131405176760091,-1.2750472909025126e-06,0.005223215830619618,0.005233053132744721
0.0054833656087167615,0.005602990523162488,-3.754468845021616e-05,0.005520910297166978,0.00553074759929208
0.006601594179936887,-0.0016184626244926115,2.3523918317509e-05,0.006578070261619378,0.00658790756374448
-0.0008553971929832205,-0.005510332450180511,5.643572472496098e-05,-0.0009118329177081815,-0.0009019956155830787
0.007420043228879791,-0.0024225306518709244,3.0323562817648302e-05,0.007389719666062143,0.0073995569681872455
-0.002832818024996131,0.006697492376419811,-4.680040221259398e-05,-0.002786017622783537,-0.0027761803206584343
-0.009659095034618925,-0.008282433828555424,7.987814905907393e-05,-0.009738973183678,-0.009729135881552897
-0.013195613207650392,0.007174256352702191,-5.083218240880834e-05,-0.013144781025241583,-0.013134943723116481
0.015523155765837071,-0.0033400389194234714,3.808252080735668e-05,0.015485073245029714,0.015494910547154817
-0.011335659526402697,0.0077851108025177584,-5.599790590314619e-05,-0.011279661620499551,-0.011269824318374448
0.004400962278365617,-0.0005883499068413123,1.4812714741936844e-05,0.00438614956362368,0.004395986865748783
0.006630139848412764,0.00405666949441863,-2.4468141540583978e-05,0.0066546079899533475,0.006664445292078451
-0.018327589438924874,-0.0044735804606589324,4.766837578989124e-05,-0.018375257814714767,-0.018365420512589662
0.01633609665205782,0.005172264111710456,-3.39022273959644e-05,0.016369998879453784,0.016379836181578886
-0.004018352153710825,-0.010546128701639845,9.90212064493163e-05,-0.004117373360160141,-0.004107536058035038
0.011642631692526217,0.004048451943253761,-2.4398649377383557e-05,0.011667030341903601,0.011676867644028704
0.007121695514698878,-0.00429489561132812,4.6157317755446066e-05,0.007075538196943432,0.007085375499068534
0.006958148496105654,0.006302737952936344,-4.346214020844876e-05,0.007001610636314102,0.007011447938439205
0.0,0.0035443321494683655,-2.0135533239809e-05,2.0135533239809e-05,2.9972835364911702e-05
0.0,0.01218913260513399,-9.324075303673032e-05,9.324075303673032e-05,0.00010307805516183302
0.0,0.0035522505198095633,-2.0202495364290115e-05,2.0202495364290115e-05,3.0039797489392816e-05
0.0,-0.002836767069231527,3.3826575350365506e-05,-3.3826575350365506e-05,-2.398927322526281e-05
0.0,-0.022966290584432447,0.0002040529731177796,-0.0002040529731177796,-0.00019421567099267692
0.0,0.014307223290395576,-0.0001111525007849827,0.0001111525007849827,0.0001209898029100854
0.0,-0.014327681394279534,0.00013100011009050836,-0.00013100011009050836,-0.00012116280796540566
0.0,-0.006701003439812281,6.650469795913221e-05,-6.650469795913221e-05,-5.6667395834029506e-05
0.0,0.008847902373522176,-6.49854599589108e-05,6.49854599589108e-05,7.48227620840135e-05
0.0,0.004661629963028435,-2.9584022265995478e-05,2.9584022265995478e-05,3.942132439109818e-05
0.0,0.01041921875000007,-7.827338137040318e-05,7.827338137040318e-05,8.811068349550588e-05
0.0,6.340190171760796e-06,9.783685966067231e-06,-9.783685966067231e-06,5.361615903546787e-08
0.0,0.0040347322693841114,-2.4282628217736602e-05,2.4282628217736602e-05,3.41199303428393e-05
0.0,-0.0018421130247733286,2.5415229950905437e-05,-2.5415229950905437e-05,-1.557792782580274e-05
0.0,0.007186011722218666,-5.0931592323091865e-05,5.0931592323091865e-05,6.0768894448194566e-05
0.0,0.002484899676771457,-1.1176385579466634e-05,1.1176385579466634e-05,2.1013687704569334e-05
0.0,-0.009307883608932754,8.854992025490973e-05,-8.854992025490973e-05,-7.871261812980704e-05
0.0,0.009407983261396247,-6.97218140971089e-05,6.97218140971089e-05,7.95591162222116e-05
0.0,0.010534666895180678,-7.924967481660343e-05,7.924967481660343e-05,8.908697694170613e-05
0.0,0.0019077786269059427,-6.295930395310523e-06,6.295930395310523e-06,1.6133232520413222e-05
0.0,0.005230269513137653,-3.439275319149791e-05,3.439275319149791e-05,4.423005531660061e-05
0.0,0.004139081299929126,-2.5165061404333692e-05,2.5165061404333692e-05,3.500236352943639e-05
0.0,-0.0036871039064235722,4.1017494528101104e-05,-4.1017494528101104e-05,-3.11801924029984e-05
0.0,0.004321655306021466,-2.6709008302013385e-05,2.6709008302013385e-05,3.6546310427116086e-05
0.0,4.2889368592202715e-05,9.474605873874686e-06,-9.474605873874686e-06,3.6269625122801443e-07
0.0,0.010142153479971716,-7.593036401940795e-05,7.593036401940795e-05,8.576766614451064e-05
0.0,0.0051141362697153525,-3.3410666175185986e-05,3.3410666175185986e-05,4.3247968300288686e-05
0.0,-0.005009741163373271,5.220244759633938e-05,-5.220244759633938e-05,-4.236514547123668e-05
0.0,0.010300096519028301,-7.726601782019152e-05,7.726601782019152e-05,8.710331994529421e-05
0.0,-0.000707617924973758,1.582131114911028e-05,-1.582131114911028e-05,-5.984009024007582e-06
0.0,0.001722386289245481,-4.72815012521179e-06,4.72815012521179e-06,1.4565452250314489e-05
0.0,-0.008273657594813577,7.980393236662657e-05,-7.980393236662657e-05,-6.996663024152387e-05
0.0,-0.002923832356719225,3.4562847634626136e-05,-3.4562847634626136e-05,-2.472554550952344e-05
0.0,-0.0005513654411685165,1.4499953619693768e-05,-1.4499953619693768e-05,-4.66265149459107e-06
0.0,0.006340981548631053,-4.378554923141284e-05,4.378554923141284e-05,5.362285135651554e-05
0.0,-0.007047981897774669,6.943893994241742e-05,-6.943893994241742e-05,-5.960163781731472e-05
0.0,0.00367034439193481,-2.1201162542631707e-05,2.1201162542631707e-05,3.103846466773441e-05
0.0,-0.014307241527974024,0.0001308272592622507,-0.0001308272592622507,-0.000120989957137148
0.0,0.005935988427895333,-4.036070313352264e-05,4.036070313352264e-05,5.019800525862534e-05
0.0,-0.005510807488524838,5.64397419122578e-05,-5.64397419122578e-05,-4.66024397871551e-05
0.0,-0.013779732742503992,0.0001263663528591052,-0.0001263663528591052,-0.00011652905073400251
0.0,0.008490293972530871,-6.196132529093691e-05,6.196132529093691e-05,7.17986274160396e-05
0.0,0.012831541229424204,-9.86733161038622e-05,9.86733161038622e-05,0.00010851061822896489
0.0,-0.00034681344994402785,1.2770148709209834e-05,-1.2770148709209834e-05,-2.932846584107134e-06
0.0,-0.010153367167240024,9.569979741884445e-05,-9.569979741884445e-05,-8.586249529374176e-05
0.0,-0.008369555515669425,8.061489828980643e-05,-8.061489828980643e-05,-7.077759616470373e-05
0.0,0.014784291377196501,-0.0001151868527081461,0.0001151868527081461,0.0001250241548332488
0.0,-0.005885016114436148,5.96042572746941e-05,-5.96042572746941e-05,-4.97669551495914e-05
0.0,0.007567364431436019,-5.4156522010070906e-05,5.4156522010070906e-05,6.39938241351736e-05
0.0,0.007791157767295331,-5.604904238587194e-05,5.604904238587194e-05,6.588634451097464e-05
0.0,-0.013851474486292426,0.0001269730407722809,-0.0001269730407722809,-0.0001171357386471782
0.0,-0.02501035094286319,0.0002213386794273242,-0.0002213386794273242,-0.0002115013773022215
0.0,0.002669776576555538,-1.2739807021453868e-05,1.2739807021453868e-05,2.2577109146556567e-05
0.0,-0.012145015629135836,0.00011254227970768322,-0.00011254227970768322,-0.00010270497758258053
0.0,0.009497272121224087,-7.047689014040298e-05,7.047689014040298e-05,8.031419226550567e-05
0.0,0.009590486444071455,-7.126516207275417e-05,7.126516207275417e-05,8.110246419785687e-05
0.0,0.0061998311850259835,-4.259190359335752e-05,4.259190359335752e-05,5.242920571846022e-05
0.0,-0.004289562412875814,4.611221727602194e-05,-4.611221727602194e-05,-3.6274915150919236e-05
0.0,0.005403747467634501,-3.585977883985753e-05,3.585977883985753e-05,4.5697080964960234e-05
0.0,-0.0005449081736377259,1.44453473896776e-05,-1.44453473896776e-05,-4.6080452645748995e-06
0.0,0.0008240472350893313,2.868702380875013e-06,-2.868702380875013e-06,6.968599744227686e-06
0.0,0.010201732142340214,-7.643419418066991e-05,7.643419418066991e-05,8.62714963057726e-05
0.0,0.0052515464964768555,-3.4572683144954316e-05,3.4572683144954316e-05,4.4409985270057016e-05
0.0,0.007229670722828763,-5.130079700885454e-05,5.130079700885454e-05,6.113809913395724e-05
0.0,0.00018159245054127915,8.301655804708875e-06,-8.301655804708875e-06,1.5356463203938246e-06
0.0,0.013554249906357896,-0.00010478494088309624,0.00010478494088309624,0.00011462224300819893
0.0,0.003086483632862347,-1.626371264524096e-05,1.626371264524096e-05,2.610101477034366e-05
0.0,0.001374879432867404,-1.7894397123176596e-06,1.7894397123176596e-06,1.1626741837420359e-05
0.0,-0.003708760911961373,4.120063815970991e-05,-4.120063815970991e-05,-3.136333603460721e-05
0.0,0.0027740472164057284,-1.3621577292925895e-05,1.3621577292925895e-05,2.3458879418028594e-05
0.0,0.0050329647425946256,-3.272423479231659e-05,3.272423479231659e-05,4.256153691741929e-05
0.0,0.0016100503211176065,-3.7781749715683045e-06,3.7781749715683045e-06,1.3615477096671004e-05
0.0,0.0020330263437824403,-7.3550944463810256e-06,7.3550944463810256e-06,1.7192396571483725e-05
0.0,-0.0018519369130487462,2.5498306190237734e-05,-2.5498306190237734e-05,-1.5661004065135033e-05
0.0,-0.0038112215188927934,4.2067101790497176e-05,-4.2067101790497176e-05,-3.2229799665394475e-05
0.0,0.0025564722015867236,-1.178164248329852e-05,1.178164248329852e-05,2.161894460840122e-05
0.0,0.0008282942843145236,2.8327869807812447e-06,-2.8327869807812447e-06,7.004515144321454e-06
0.0,-0.003736037754951127,4.143130624885304e-05,-4.143130624885304e-05,-3.159400412375034e-05
0.0,0.00037381693747806644,6.676099096959251e-06,-6.676099096959251e-06,3.1612030281434487e-06
0.0,-0.00013640921141577778,1.0990853954785425e-05,-1.0990853954785425e-05,-1.1535518296827258e-06
0.0,0.01254056989753427,-9.621270139314606e-05,9.621270139314606e-05,0.00010605000351824875
0.0,0.0016404581697111453,-4.035320577922384e-06,4.035320577922384e-06,1.3872622703025083e-05
0.0,-0.0014798348405500317,2.2351605009983142e-05,-2.2351605009983142e-05,-1.2514302884880441e-05
0.0,-0.005723033522392118,5.8234442776906243e-05,-5.8234442776906243e-05,-4.839714065180354e-05
0.0,-0.0038058649299111957,4.202180350780462e-05,-4.202180350780462e-05,-3.218450138270192e-05
0.0,0.003885449938943575,-2.3020214164963446e-05,2.3020214164963446e-05,3.285751629006615e-05
0.0,-0.003569960525698801,4.0026865231385954e-05,-4.0026865231385954e-05,-3.0189563106283253e-05
0.0,-0.0011529207361400395,1.958703831117135e-05,-1.958703831117135e-05,-9.749736186068652e-06
0.0,0.002776056134700333,-1.3638565818483459e-05,1.3638565818483459e-05,2.3475867943586158e-05
0.0,-0.005176618120080079,5.361365155201855e-05,-5.361365155201855e-05,-4.377634942691585e-05
0.0,-0.014281601380197961,0.0001306104319741707,-0.0001306104319741707,-0.00012077312984906801
0.0,-0.0033045953891290836,3.778279068798164e-05,-3.778279068798164e-05,-2.7945488562878943e-05
0.0,-0.005900302398330837,5.9733526556238586e-05,-5.9733526556238586e-05,-4.9896224431135885e-05
0.0,0.0038211953199089876,-2.247684152477574e-05,2.247684152477574e-05,3.231414364987844e-05
0.0,-0.005779602928505545,5.87128250008699e-05,-5.87128250008699e-05,-4.88755228757672e-05
0.0,0.008619376484360286,-6.305291849168494e-05,6.305291849168494e-05,7.289022061678763e-05
0.0,0.003947010921615535,-2.3540807924440987e-05,2.3540807924440987e-05,3.337811004954369e-05
0.0,-0.00403965777164117,4.399888524257332e-05,-4.399888524257332e-05,-3.416158311747062e-05
0.0,-0.015874194741040237,0.00014407828334778898,-0.00014407828334778898,-0.0001342409812226863
0.0,0.002747645185721348,-1.3398307101072973e-05,1.3398307101072973e-05,2.3235609226175672e-05
0.0,0.0019634016027962886,-6.766309081212705e-06,6.766309081212705e-06,1.6603611206315405e-05
0.0,-0.0031743183568806455,3.668109596109285e-05,-3.668109596109285e-05,-2.6843793835990148e-05
0.0,0.004164221602432239,-2.537766172399134e-05,2.537766172399134e-05,3.521496384909404e-05
0.0,0.008116953209842404,-5.880414906050081e-05,5.880414906050081e-05,6.864145118560351e-05
0.0,0.0012098628337211537,-3.939679703619639e-07,3.939679703619639e-07,1.0231270095464663e-05
0.0,5.443114110303959e-05,9.377002254152287e-06,-9.377002254152287e-06,4.6029987095041175e-07
0.0,0.009992880823750605,-7.466803177719144e-05,7.466803177719144e-05,8.450533390229414e-05
0.0,0.007345789391592916,-5.228276077378631e-05,5.228276077378631e-05,6.212006289888901e-05
0.0,0.0030522833735622257,-1.597449631386706e-05,1.597449631386706e-05,2.5811798438969757e-05
0.0,-0.0033804153149811222,3.842396596702084e-05,-3.842396596702084e-05,-2.8586663841918136e-05
0.0,0.002714679741101511,-1.3119533046426402e-05,1.3119533046426402e-05,2.29568351715291e-05
0.0,0.0056931530442476674,-3.830715265690086e-05,3.830715265690086e-05,4.814445478200356e-05
0.0,0.004217739327674108,-2.5830237244606625e-05,2.5830237244606625e-05,3.5667539369709326e-05
0.0,0.012177672896303449,-9.314384339293208e-05,9.314384339293208e-05,0.00010298114551803478
0.0,-0.0018429538196846895,2.5422340178274413e-05,-2.5422340178274413e-05,-1.5585038053171712e-05
0.0,-0.007216886263627376,7.086728879253219e-05,-7.086728879253219e-05,-6.1029986667429496e-05
0.0,-0.004719586526811925,4.9748739313574884e-05,-4.9748739313574884e-05,-3.991143718847218e-05
0.0,-0.0025971430708935372,3.180018212625875e-05,-3.180018212625875e-05,-2.196288000115605e-05
0.0,-0.00273946595048713,3.300374320880536e-05,-3.300374320880536e-05,-2.316644108370266e-05
0.0,0.0034854258676535466,-1.9637389100846326e-05,1.9637389100846326e-05,2.9474691225949023e-05
0.0,-0.004073801130465626,4.42876203920158e-05,-4.42876203920158e-05,-3.44503182669131e-05
0.0,-0.0060292307798877065,6.0823816346050814e-05,-6.0823816346050814e-05,-5.098651422094811e-05
0.0,0.007998543475556064,-5.780281077681321e-05,5.780281077681321e-05,6.764011290191591e-05
0.0,-0.0006666695473820372,1.547502899262532e-05,-1.547502899262532e-05,-5.63772686752262e-06
0.0,-0.008979414583967338,8.577220428682863e-05,-8.577220428682863e-05,-7.593490216172593e-05
0.0,0.0070532243451535415,-4.9808668730304884e-05,4.9808668730304884e-05,5.9645970855407585e-05
0.0,-0.008506361953748875,8.177180928812537e-05,-8.177180928812537e-05,-7.193450716302267e-05
0.0,-0.012332078852067663,0.00011412418990890587,-0.00011412418990890587,-0.00010428688778380317
0.0,0.0005739063518743759,4.984032207330484e-06,-4.984032207330484e-06,4.853269917772215e-06
0.0,0.02183049604365883,-0.00017477346127332425,0.00017477346127332425,0.00018461076339842695
0.0,0.006286271807078414,-4.332289336078286e-05,4.332289336078286e-05,5.316019548588556e-05
0.0,0.004074720335558668,-2.462078944909608e-05,2.462078944909608e-05,3.445809157419878e-05
0.0,-0.007063723409320266,6.95720588810648e-05,-6.95720588810648e-05,-5.97347567559621e-05
0.0,0.013827532394934838,-0.00010709596893938568,0.00010709596893938568,0.00011693327106448837
0.0,0.0067439531397044394,-4.71933001550363e-05,4.71933001550363e-05,5.7030602280139e-05
0.0,0.006548755402622897,-4.554259999759593e-05,4.554259999759593e-05,5.537990212269863e-05
0.0,9.173641713244862e-05,9.06152818188178e-06,-9.06152818188178e-06,7.757739432209184e-07
0.0,0.005737513079636436,-3.8682285680956925e-05,3.8682285680956925e-05,4.8519587806059626e-05
0.0,-0.004724557241463034,4.979077442924709e-05,-4.979077442924709e-05,-3.995347230414439e-05
0.0,0.003258134764679621,-1.7715289669400963e-05,1.7715289669400963e-05,2.755259179450366e-05
0.0,0.004394843515520774,-2.7327928330234913e-05,2.7327928330234913e-05,3.7165230455337614e-05
0.0,0.001329699787098182,-1.4073756090171137e-06,1.4073756090171137e-06,1.1244677734119813e-05
0.0,0.00558419502875096,-3.7385743341281224e-05,3.7385743341281224e-05,4.7223045466383925e-05
0.0,-0.004875923596155185,5.107081214514096e-05,-5.107081214514096e-05,-4.1233510020038257e-05
0.0,-0.0038393812241105385,4.23052358515339e-05,-4.23052358515339e-05,-3.24679337264312e-05
0.0,0.002903421198789946,-1.471563533009004e-05,1.471563533009004e-05,2.455293745519274e-05
0.0,0.003570558689741876,-2.0357319387568058e-05,2.0357319387568058e-05,3.019462151267076e-05
0.0,-0.0028055878101066467,3.3562906269382186e-05,-3.3562906269382186e-05,-2.372560414427949e-05
0.0,0.004265540341705787,-2.623446908954313e-05,2.623446908954313e-05,3.607177121464583e-05
0.0,-0.013182771972194418,0.00012131812201243258,-0.00012131812201243258,-0.00011148081988732989
0.0,0.013427559516743681,-0.0001037135767924613,0.0001037135767924613,0.000113550878917564
0.0,0.000722931253898329,3.7237951118014918e-06,-3.7237951118014918e-06,6.113507013301207e-06
0.0,-0.0023703916199453445,2.988264629118063e-05,-2.988264629118063e-05,-2.0045344166077933e-05
0.0,0.008095344244797742,-5.8621411685904876e-05,5.8621411685904876e-05,6.845871381100758e-05
0.0,0.00483725876385388,-3.106923666196215e-05,3.106923666196215e-05,4.0906538787064854e-05
0.0,0.004222034052096646,-2.5866555812569763e-05,2.5866555812569763e-05,3.5703857937672464e-05
0.0,-0.00369819718572606,4.111130544089615e-05,-4.111130544089615e-05,-3.1274003315793446e-05
0.0,-0.0020429655768170463,2.7113750355075718e-05,-2.7113750355075718e-05,-1.7276448229973017e-05
0.0,-0.0036356111002209257,4.058204284420045e-05,-4.058204284420045e-05,-3.074474071909775e-05
0.0,0.00812856425584818,-5.89023384952573e-05,5.89023384952573e-05,6.873964062036e-05
0.0,0.004961457973002625,-3.211953395106525e-05,3.211953395106525e-05,4.195683607616795e-05
0.0,-0.0012633420978621634,2.052082249281556e-05,-2.052082249281556e-05,-1.0683520367712862e-05
0.0,0.00014980445507073448,8.570472697324909e-06,-8.570472697324909e-06,1.2668294277777908e-06
0.0,0.0024850813860768373,-1.1177922213976256e-05,1.1177922213976256e-05,2.1015224339078955e-05
0.0,-0.0007856896412440362,1.6481528814877338e-05,-1.6481528814877338e-05,-6.644226689774641e-06
0.0,-0.002719020284730922,3.283084333718109e-05,-3.283084333718109e-05,-2.2993541212078393e-05
0.0,-0.0031928479771501372,3.6837792691052284e-05,-3.6837792691052284e-05,-2.7000490565949586e-05
0.0,-0.0013034931835718133,2.086036230763746e-05,-2.086036230763746e-05,-1.1023060182534762e-05
0.0,-0.004339572538419101,4.653513059121796e-05,-4.653513059121796e-05,-3.669782846611526e-05
0.0,0.011237870620775636,-8.519635492625729e-05,8.519635492625729e-05,9.503365705135999e-05
0.0,0.0018171001772671058,-5.529103211075556e-06,5.529103211075556e-06,1.5366405336178255e-05
0.0,-0.003179659038540561,3.6726259722664416e-05,-3.6726259722664416e-05,-2.688895759756172e-05
0.0,-0.01131687458772268,0.00010553906047019551,-0.00010553906047019551,-9.570175834509281e-05
0.0,-0.0037705618911193506,4.172326146237364e-05,-4.172326146237364e-05,-3.188595933727094e-05
0.0,-0.00010141014414954963,1.0694882460902303e-05,-1.0694882460902303e-05,-8.575803357996045e-07
0.0,0.006320039831068547,-4.360845447102092e-05,4.360845447102092e-05,5.344575659612362e-05
0.0,-0.003100987910356179,3.6060973097821415e-05,-3.6060973097821415e-05,-2.6223670972718717e-05
0.0,0.01664796429762072,-0.00013094710295057837,0.00013094710295057837,0.00014078440507568106
0.0,-0.0005799292044108562,1.4741504619137593e-05,-1.4741504619137593e-05,-4.904202494034895e-06
0.0,0.0048187283492318045,-3.0912533214517385e-05,3.0912533214517385e-05,4.0749835339620086e-05
0.0,0.00531812014989308,-3.513566682406139e-05,3.513566682406139e-05,4.497296894916409e-05
0.0,0.0029157468493599126,-1.4819867856760672e-05,1.4819867856760672e-05,2.465716998186337e-05
0.0,0.004745529147706984,-3.0293520231641182e-05,3.0293520231641182e-05,4.013082235674388e-05
0.0,-0.00033658435338035364,1.268364580420394e-05,-1.268364580420394e-05,-2.846343679101242e-06
0.0,-0.00017925389411521664,1.1353172317358973e-05,-1.1353172317358973e-05,-1.5158701922562737e-06
0.0,0.003959675229718407,-2.3647904326744828e-05,2.3647904326744828e-05,3.348520645184753e-05
0.0,-0.008861912729460575,8.477854353730455e-05,-8.477854353730455e-05,-7.494124141220186e-05
0.0,-0.00033296507498215,1.2653039181857497e-05,-1.2653039181857497e-05,-2.815737056754798e-06
0.0,-0.0025117674736410134,3.1078198798309435e-05,-3.1078198798309435e-05,-2.1240896673206737e-05
0.0,0.006081764662643874,-4.1593467699589086e-05,4.1593467699589086e-05,5.143076982469179e-05
0.0,-0.0002122089839386998,1.1631858806113504e-05,-1.1631858806113504e-05,-1.7945566810108046e-06
0.0,0.0003483091890779111,6.8918067425990995e-06,-6.8918067425990995e-06,2.9454953825036e-06
0.0,0.002306686808393188,-9.669318877320294e-06,9.669318877320294e-06,1.9506621002422993e-05
0.0,-0.012576216507389826,0.00011618875311595303,-0.00011618875311595303,-0.00010635145099085034
0.0,0.010817971767347556,-8.164545769852347e-05,8.164545769852347e-05,9.148275982362617e-05
0.0,0.005166188100786506,-3.385084528294029e-05,3.385084528294029e-05,4.368814740804299e-05
0.0,-0.0013471203041567348,2.1229297398253372e-05,-2.1229297398253372e-05,-1.1391995273150675e-05
0.0,-0.0038951743709020326,4.2777053596810015e-05,-4.2777053596810015e-05,-3.2939751471707314e-05
0.0,0.0027737519941737343,-1.361908073024992e-05,1.361908073024992e-05,2.345638285535262e-05
0.0,0.0005748652214816463,4.97592347494787e-06,-4.97592347494787e-06,4.861378650154829e-06
0.0,-0.00888957673985069,8.501248572838292e-05,-8.501248572838292e-05,-7.517518360328023e-05
0.0,-0.02087544856898549,0.00018637165521070032,-0.00018637165521070032,-0.00017653435308559763
0.0,-0.004876293940238585,5.107394397979189e-05,-5.107394397979189e-05,-4.1236641854689186e-05
0.0,0.00614065260021901,-4.20914567095027e-05,4.20914567095027e-05,5.1928758834605404e-05
0.0,-0.010209232261157553,9.617222358885975e-05,-9.617222358885975e-05,-8.633492146375705e-05
0.0,0.011267044743841437,-8.544306746636109e-05,8.544306746636109e-05,9.528036959146378e-05
0.0,-0.0064652996420466735,6.451145612191538e-05,-6.451145612191538e-05,-5.4674153996812676e-05
0.0,-0.02283191982018462,0.0002029166595261594,-0.0002029166595261594,-0.0001930793574010567
0.0,0.007641088938743268,-5.477997726953661e-05,5.477997726953661e-05,6.461727939463931e-05
0.0,-0.0020282227794392593,2.6989077096479186e-05,-2.6989077096479186e-05,-1.715177497137649e-05
0.0,0.012439792925644788,-9.536047551260298e-05,9.536047551260298e-05,0.00010519777763770567
0.0,0.013301886798946505,-0.00010265081869825707,0.00010265081869825707,0.00011248812082335976
0.0,0.0015692347655638095,-3.4330160317875435e-06,3.4330160317875435e-06,1.3270318156890243e-05
0.0,0.011062113608869106,-8.371005630639081e-05,8.371005630639081e-05,9.35473584314935e-05
0.0,-0.00026926239009483766,1.211433400245814e-05,-1.211433400245814e-05,-2.2770318773554416e-06
0.0,0.005810025082904069,-3.929548733482752e-05,3.929548733482752e-05,4.913278945993022e-05
0.0,0.004809216724759979,-3.083209765082744e-05,3.083209765082744e-05,4.066939977593014e-05
0.0,0.0011584739056558213,4.06052624860147e-08,-4.06052624860147e-08,9.796696862616684e-06
0.0,-0.006524484290135191,6.501195428023653e-05,-6.501195428023653e-05,-5.517465215513383e-05
0.0,0.006031458262132583,-4.116804891919843e-05,4.116804891919843e-05,5.100535104430113e-05
0.0,-0.0019187235651341172,2.6063091104041233e-05,-2.6063091104041233e-05,-1.6225788978938536e-05
0.0,0.00618651346579302,-4.247928158470474e-05,4.247928158470474e-05,5.2316583709807443e-05
0.0,-0.0013476817370097205,2.123404518535722e-05,-2.123404518535722e-05,-1.139674306025452e-05
0.0,2.1699977565736717e-05,9.653795098229481e-06,-9.653795098229481e-06,1.835070268732186e-07
0.0,0.004948082937896281,-3.200642724764794e-05,3.200642724764794e-05,4.184372937275064e-05
0.0,0.0027826887923012578,-1.3694655244056672e-05,1.3694655244056672e-05,2.353195736915937e-05
0.0,-0.007378510346287226,7.22340715364393e-05,-7.22340715364393e-05,-6.239676941133661e-05
0.0,0.01526770113133269,-0.00011927483328205753,0.00011927483328205753,0.00012911213540716022
0.0,-5.335132643191631e-05,1.028847048523603e-05,-1.028847048523603e-05,-4.5116836013333184e-07
0.0,0.0017184082710823834,-4.6945098007577045e-06,4.6945098007577045e-06,1.4531811925860404e-05
0.0,0.0005380892952486782,5.286921072206983e-06,-5.286921072206983e-06,4.550381052895716e-06
0.0,-0.0004632463094992323,1.3754769445456996e-05,-1.3754769445456996e-05,-3.917467320354296e-06
0.0,-0.005082138985368356,5.281468367014029e-05,-5.281468367014029e-05,-4.297738154503759e-05
0.0,0.00030517087837123036,7.256608186201299e-06,-7.256608186201299e-06,2.5806939389013997e-06
0.0,-0.011701095130556172,0.00010878824214632386,-0.00010878824214632386,-9.895094002122116e-05
0.0,-0.0028217776974703845,3.369981692224032e-05,-3.369981692224032e-05,-2.386251479713762e-05
0.0,0.009613634629240364,-7.146091594507911e-05,7.146091594507911e-05,8.12982180701818e-05
0.0,0.0072196189337276895,-5.121579351393816e-05,5.121579351393816e-05,6.105309563904086e-05
0.0,-0.006131649335692324,6.16899243692236e-05,-6.16899243692236e-05,-5.1852622244120905e-05
0.0,0.006040504799839086,-4.124455145165441e-05,4.124455145165441e-05,5.108185357675711e-05
0.0,-0.0029326714097337447,3.463759556163001e-05,-3.463759556163001e-05,-2.480029343652731e-05
0.0,-0.004864709743258144,5.097598159526155e-05,-5.097598159526155e-05,-4.1138679470158847e-05
0.0,0.004403939814465518,-2.740485167127724e-05,2.740485167127724e-05,3.724215379637994e-05
0.0,-0.007000319763734719,6.903588254359714e-05,-6.903588254359714e-05,-5.919858041849445e-05
0.0,-0.0019000838946738874,2.5905463728727527e-05,-2.5905463728727527e-05,-1.606816160362483e-05
0.0,0.0046402218845611465,-2.940298369954075e-05,2.940298369954075e-05,3.924028582464345e-05
0.0,0.007924102207026662,-5.717329418753937e-05,5.717329418753937e-05,6.701059631264207e-05
0.0,0.0070393485966973035,-4.9691327717525896e-05,4.9691327717525896e-05,5.95286298426286e-05
0.0,0.002853326841976367,-1.429200970862853e-05,1.429200970862853e-05,2.412931183373123e-05
0.0,-0.0011264502910314222,1.9363189569061916e-05,-1.9363189569061916e-05,-9.525887443959218e-06
0.0,-0.012537288005457836,0.00011585955214657289,-0.00011585955214657289,-0.0001060222500214702
0.0,-0.010750112394172895,0.00010074620551136441,-0.00010074620551136441,-9.090890338626172e-05
0.0,0.0037505537703756975,-2.1879457463465023e-05,2.1879457463465023e-05,3.1716759588567723e-05
0.0,0.010918212704340347,-8.249315057114549e-05,8.249315057114549e-05,9.233045269624818e-05
0.0,-0.020884795550912827,0.00018645069846586165,-0.00018645069846586165,-0.00017661339634075896
0.0,-0.009486773662544357,9.006271361038716e-05,-9.006271361038716e-05,-8.022541148528447e-05
0.0,0.008217286225508769,-5.9652620601376045e-05,5.9652620601376045e-05,6.948992272647875e-05
0.0,0.006757307791485534,-4.7306234485767836e-05,4.7306234485767836e-05,5.714353661087054e-05
0.0,0.010488490558689278,-7.88591821446288e-05,7.88591821446288e-05,8.86964842697315e-05
0.0,0.001363852909705754,-1.6961933264164112e-06,1.6961933264164112e-06,1.153349545151911e-05
0.0,0.003775123551313042,-2.2087233136830574e-05,2.2087233136830574e-05,3.1924535261933275e-05
0.0,0.004092139025126507,-2.4768091533853465e-05,2.4768091533853465e-05,3.4605393658956166e-05
0.0,-0.002213313863220212,2.8554309796950474e-05,-2.8554309796950474e-05,-1.8717007671847777e-05
0.0,0.0017169605671216726,-4.682267214385537e-06,4.682267214385537e-06,1.4519569339488236e-05
0.0,-0.008096390978489132,7.83048676958438e-05,-7.83048676958438e-05,-6.846756557074111e-05
0.0,0.0032360358580392212,-1.752840907736147e-05,1.752840907736147e-05,2.736571120246417e-05
0.0,0.004760757069291355,-3.0422295969170912e-05,3.0422295969170912e-05,4.025959809427361e-05
0.0,0.002992016977140688,-1.546485029261304e-05,1.546485029261304e-05,2.5302152417715736e-05
0.0,-0.0001432614814260713,1.1048800544504805e-05,-1.1048800544504805e-05,-1.2114984194021052e-06
0.0,-0.0013484450597095465,2.124050026480445e-05,-2.124050026480445e-05,-1.140319813970175e-05
0.0,0.001871216126306141,-5.986737643392021e-06,5.986737643392021e-06,1.582403976849472e-05
0.0,-0.008988392160571124,8.584812364601214e-05,-8.584812364601214e-05,-7.601082152090944e-05
0.0,0.005616468420812426,-3.765866501626325e-05,3.765866501626325e-05,4.7495967141365954e-05
0.0,-0.0013736249452109828,2.14534353202154e-05,-2.14534353202154e-05,-1.1616133195112704e-05
0.0,0.001519476431128819,-3.012232001635096e-06,3.012232001635096e-06,1.2849534126737795e-05
0.0,0.009672737603931392,-7.196072342792364e-05,7.196072342792364e-05,8.179802555302633e-05
0.0,0.0004217577030636299,6.270685435494297e-06,-6.270685435494297e-06,3.5666166896084023e-06
0.0,-0.004701005088166399,4.9591604378732756e-05,-4.9591604378732756e-05,-3.9754302253630056e-05
0.0,-0.00936180703333589,8.90059265922926e-05,-8.90059265922926e-05,-7.916862446718991e-05
0.0,0.00374696520677964,-2.184911058249415e-05,2.184911058249415e-05,3.168641270759685e-05
0.0,0.0038447864907102947,-2.267634152891591e-05,2.267634152891591e-05,3.251364365401861e-05
0.0,-0.00649839809746755,6.479135498955159e-05,-6.479135498955159e-05,-5.4954052864448885e-05
0.0,0.008116098951240547,-5.879692497670934e-05,5.879692497670934e-05,6.863422710181204e-05
0.0,0.0023622298736216685,-1.0139021794414422e-05,1.0139021794414422e-05,1.997632391951712e-05
0.0,0.004248391856225497,-2.608945200017824e-05,2.608945200017824e-05,3.592675412528094e-05
0.0,0.005987805879090757,-4.0798900195257595e-05,4.0798900195257595e-05,5.0636202320360295e-05
0.0,-0.0011140717108722997,1.92585094404751e-05,-1.92585094404751e-05,-9.4212073153724e-06
0.0,0.0053671102654548886,-3.554995437001341e-05,3.554995437001341e-05,4.538725649511611e-05
0.0,0.0018436779311643559,-5.753859415724972e-06,5.753859415724972e-06,1.559116154082767e-05
0.0,0.0007278261010281728,3.682401573901488e-06,-3.682401573901488e-06,6.154900551201211e-06
0.0,-0.00037921654875650024,1.3044167256304771e-05,-1.3044167256304771e-05,-3.2068651312020724e-06
0.0,0.001891663548679423,-6.159652369943007e-06,6.159652369943007e-06,1.5996954495045706e-05
0.0,0.006525279593556643,-4.534407555617007e-05,4.534407555617007e-05,5.518137768127277e-05
0.0,0.004627758701298612,-2.9297588120261673e-05,2.9297588120261673e-05,3.9134890245364374e-05
0.0,0.0009387712266117898,1.8985327790153373e-06,-1.8985327790153373e-06,7.938769346087362e-06
0.0,-0.00024598362294592224,1.1917475856599206e-05,-1.1917475856599206e-05,-2.0801737314965067e-06
0.0,-0.0035370410325543666,3.974847976786147e-05,-3.974847976786147e-05,-2.9911177642758775e-05
0.0,-0.00708889350376507,6.978491113787898e-05,-6.978491113787898e-05,-5.9947609012776286e-05
0.0,0.003134561695468774,-1.6670287366343918e-05,1.6670287366343918e-05,2.650758949144662e-05
0.0,0.0008367051734305964,2.7616598448026397e-06,-2.7616598448026397e-06,7.0756422803000594e-06
0.0,0.0021725690603942027,-8.53514493121051e-06,8.53514493121051e-06,1.837244705631321e-05
0.0,0.007718881307192449,-5.543783261543684e-05,5.543783261543684e-05,6.527513474053954e-05
0.0,0.0012774785766593855,-9.657641355345195e-07,9.657641355345195e-07,1.0803066260637219e-05
0.0,0.0017300583227324307,-4.79302908884191e-06,4.79302908884191e-06,1.463033121394461e-05
0.0,-0.00013246407875799893,1.0957491728374992e-05,-1.0957491728374992e-05,-1.1201896032722923e-06
0.0,-0.006435310620591883,6.425785234977623e-05,-6.425785234977623e-05,-5.4420550224673526e-05
0.0,0.0048975112174378665,-3.157876477486085e-05,3.157876477486085e-05,4.1416066899963553e-05
0.0,-0.00117888399729138,1.9806598024879915e-05,-1.9806598024879915e-05,-9.969295899777217e-06
0.0,0.001910868625069062,-6.322061130894925e-06,6.322061130894925e-06,1.6159363255997624e-05
0.0,-0.0003722566922789161,1.298531085584091e-05,-1.298531085584091e-05,-3.1480087307382124e-06
0.0,0.006677770440579822,-4.6633622601913864e-05,4.6633622601913864e-05,5.6470924727016565e-05
0.0,0.0006588129971369927,4.266014597094633e-06,-4.266014597094633e-06,5.571287528008066e-06
0.0,0.005479508115899812,-3.65004528347978e-05,3.65004528347978e-05,4.6337754959900504e-05
0.0,-0.003923521850109468,4.301677557868526e-05,-4.301677557868526e-05,-3.317947345358256e-05
0.0,-0.00704880201475111,6.94458753057181e-05,-6.94458753057181e-05,-5.960857318061539e-05
0.0,0.004644267890169251,-2.9437198963478535e-05,2.9437198963478535e-05,3.9274501088581236e-05
0.0,-0.004131071874054704,4.477193351404613e-05,-4.477193351404613e-05,-3.493463138894343e-05
0.0,0.0014709227452411877,-2.6016351466851743e-06,2.6016351466851743e-06,1.2438937271787873e-05
0.0,0.004843552990250188,-3.11224641258595e-05,3.11224641258595e-05,4.09597662509622e-05
0.0,-0.0019320956634630848,2.617617297244278e-05,-2.617617297244278e-05,-1.6338870847340083e-05
0.0,0.004201084929208676,-2.5689398428644946e-05,2.5689398428644946e-05,3.552670055374765e-05
0.0,-0.01183402645755216,0.00010991238305943994,-0.00010991238305943994,-0.00010007508093433724
0.0,0.010264935568841116,-7.696867735468451e-05,7.696867735468451e-05,8.68059794797872e-05
0.0,-0.0023202504717819705,2.9458624976154082e-05,-2.9458624976154082e-05,-1.9621322851051385e-05
0.0,0.005016150134305564,-3.258204115336852e-05,3.258204115336852e-05,4.241934327847122e-05
0.0,0.0017544380056517817,-4.999197188098653e-06,4.999197188098653e-06,1.4836499313201352e-05
0.0,0.00048815592189166424,5.709185328413597e-06,-5.709185328413597e-06,4.128116796689102e-06
0.0,-0.004849150767687549,5.0844406281899884e-05,-5.0844406281899884e-05,-4.100710415679718e-05
